-0.0665 -1.867 -1.8 0.967 0.867 -1.833 -0.7985 -0.6215 -0.575 -0.775 -0.9605 -0.8745 -0.1325 -0.538 0.2605
-0.068 -1.875 -1.807 0.9715 0.87 -1.841 -0.793 -0.617 -0.573 -0.776 -0.9595 -0.875 -0.134 -0.545 0.2595
-0.0725 -1.879 -1.806 0.976 0.867 -1.843 -0.79 -0.6125 -0.5715 -0.7755 -0.9605 -0.8765 -0.1375 -0.5445 0.2575
-0.0725 -1.879 -1.807 0.976 0.868 -1.843 -0.786 -0.609 -0.567 -0.774 -0.961 -0.876 -0.138 -0.549 0.2565
-0.071 -1.881 -1.81 0.976 0.8695 -1.845 -0.781 -0.604 -0.5645 -0.771 -0.962 -0.8735 -0.138 -0.553 0.256
-0.073 -1.883 -1.81 0.9785 0.869 -1.847 -0.777 -0.6005 -0.5605 -0.7705 -0.961 -0.875 -0.14 -0.554 0.2525
-0.0725 -1.887 -1.815 0.98 0.8715 -1.851 -0.774 -0.597 -0.558 -0.7695 -0.9605 -0.873 -0.1395 -0.5535 0.25
-0.074 -1.889 -1.815 0.982 0.8705 -1.852 -0.771 -0.593 -0.5575 -0.7685 -0.9605 -0.8715 -0.1395 -0.5525 0.25
-0.0745 -1.887 -1.812 0.9805 0.869 -1.849 -0.768 -0.5895 -0.5565 -0.7685 -0.962 -0.8715 -0.141 -0.554 0.248
-0.074 -1.888 -1.813 0.981 0.87 -1.851 -0.7665 -0.588 -0.5565 -0.768 -0.9645 -0.872 -0.1425 -0.5495 0.2465
-0.0725 -1.887 -1.815 0.98 0.8715 -1.851 -0.766 -0.5875 -0.5575 -0.7715 -0.9655 -0.8735 -0.1455 -0.5505 0.2445
-0.0745 -1.884 -1.809 0.9795 0.8675 -1.847 -0.765 -0.5855 -0.558 -0.773 -0.9675 -0.876 -0.147 -0.551 0.2435
-0.074 -1.879 -1.806 0.977 0.866 -1.843 -0.764 -0.5855 -0.557 -0.7745 -0.968 -0.8775 -0.146 -0.5455 0.243
-0.073 -1.877 -1.804 0.9755 0.866 -1.841 -0.7645 -0.586 -0.5575 -0.7765 -0.9715 -0.8795 -0.146 -0.541 0.2425
-0.0775 -1.877 -1.8 0.978 0.8615 -1.839 -0.7655 -0.5865 -0.562 -0.779 -0.9735 -0.8825 -0.146 -0.5415 0.244
-0.079 -1.877 -1.798 0.9785 0.8595 -1.837 -0.764 -0.5875 -0.5625 -0.7815 -0.9745 -0.8815 -0.1455 -0.5425 0.2425
-0.081 -1.873 -1.791 0.977 0.855 -1.831 -0.764 -0.59 -0.5645 -0.783 -0.978 -0.8855 -0.1475 -0.535 0.2415
-0.0855 -1.871 -1.786 0.9785 0.85 -1.828 -0.7655 -0.5925 -0.5675 -0.786 -0.98 -0.8895 -0.1505 -0.532 0.2415
-0.0885 -1.877 -1.788 0.9825 0.85 -1.832 -0.763 -0.5915 -0.567 -0.787 -0.981 -0.8885 -0.1505 -0.5385 0.2415
-0.091 -1.875 -1.784 0.9835 0.847 -1.83 -0.76 -0.592 -0.5685 -0.789 -0.981 -0.8875 -0.15 -0.5375 0.2415
-0.0945 -1.875 -1.78 0.9845 0.843 -1.827 -0.7615 -0.5945 -0.5705 -0.79 -0.981 -0.8875 -0.151 -0.532 0.24
-0.0955 -1.879 -1.784 0.9875 0.8445 -1.831 -0.7605 -0.594 -0.57 -0.7905 -0.9815 -0.886 -0.1525 -0.536 0.24
-0.096 -1.884 -1.788 0.99 0.8465 -1.836 -0.756 -0.592 -0.5695 -0.7895 -0.98 -0.8835 -0.154 -0.5435 0.2405
-0.098 -1.883 -1.784 0.9905 0.8435 -1.833 -0.754 -0.5915 -0.5715 -0.79 -0.979 -0.883 -0.155 -0.54 0.24
-0.0985 -1.883 -1.785 0.9915 0.8435 -1.834 -0.7535 -0.595 -0.5715 -0.7905 -0.9785 -0.883 -0.155 -0.5385 0.2405
-0.0985 -1.887 -1.788 0.9925 0.845 -1.837 -0.7535 -0.5965 -0.573 -0.791 -0.9795 -0.8815 -0.155 -0.5445 0.2415
-0.101 -1.889 -1.787 0.995 0.8435 -1.838 -0.753 -0.599 -0.5745 -0.794 -0.9805 -0.879 -0.154 -0.5435 0.2425
-0.104 -1.889 -1.785 0.9965 0.841 -1.837 -0.751 -0.603 -0.577 -0.795 -0.979 -0.8785 -0.154 -0.5425 0.243
-0.106 -1.885 -1.779 0.9955 0.837 -1.831 -0.754 -0.6065 -0.581 -0.797 -0.9815 -0.8805 -0.156 -0.5375 0.243
-0.108 -1.887 -1.78 0.998 0.836 -1.833 -0.7535 -0.6095 -0.584 -0.799 -0.9815 -0.88 -0.159 -0.5385 0.244
-0.1065 -1.887 -1.782 0.997 0.838 -1.835 -0.7555 -0.614 -0.587 -0.8 -0.982 -0.88 -0.1595 -0.537 0.245
-0.107 -1.88 -1.772 0.994 0.833 -1.826 -0.759 -0.6215 -0.592 -0.805 -0.9845 -0.8805 -0.1595 -0.532 0.2455
-0.1065 -1.874 -1.768 0.9905 0.831 -1.821 -0.761 -0.6275 -0.5975 -0.808 -0.985 -0.8805 -0.159 -0.5305 0.2455
-0.105 -1.871 -1.766 0.9885 0.831 -1.819 -0.7635 -0.635 -0.6035 -0.8105 -0.9875 -0.8815 -0.1585 -0.5275 0.247
-0.1055 -1.869 -1.763 0.9875 0.829 -1.816 -0.7675 -0.642 -0.61 -0.8135 -0.989 -0.883 -0.1595 -0.526 0.2485
-0.1055 -1.865 -1.76 0.985 0.8275 -1.812 -0.772 -0.6485 -0.6145 -0.8155 -0.9905 -0.882 -0.1595 -0.52 0.25
-0.1075 -1.859 -1.752 0.9835 0.822 -1.806 -0.7745 -0.6545 -0.621 -0.82 -0.994 -0.8815 -0.16 -0.5175 0.251
-0.109 -1.857 -1.748 0.9835 0.82 -1.802 -0.778 -0.661 -0.627 -0.825 -0.994 -0.882 -0.1615 -0.5115 0.252
-0.1105 -1.859 -1.748 0.9845 0.819 -1.803 -0.7795 -0.668 -0.6305 -0.826 -0.9935 -0.8795 -0.16 -0.5125 0.2525
-0.1125 -1.855 -1.742 0.9835 0.815 -1.798 -0.78 -0.673 -0.632 -0.8255 -0.9925 -0.876 -0.1595 -0.509 0.2535
-0.1145 -1.853 -1.738 0.984 0.812 -1.796 -0.7825 -0.6805 -0.6365 -0.828 -0.991 -0.875 -0.159 -0.5035 0.255
-0.1165 -1.857 -1.74 0.987 0.8125 -1.798 -0.7845 -0.687 -0.6415 -0.8285 -0.9895 -0.873 -0.159 -0.5125 0.2585
-0.116 -1.859 -1.742 0.9875 0.8135 -1.8 -0.7845 -0.692 -0.6445 -0.8275 -0.9865 -0.8685 -0.159 -0.5115 0.261
-0.117 -1.855 -1.738 0.9865 0.811 -1.796 -0.786 -0.6995 -0.6485 -0.828 -0.985 -0.8665 -0.159 -0.504 0.2625
-0.119 -1.855 -1.736 0.987 0.809 -1.795 -0.789 -0.7055 -0.652 -0.829 -0.983 -0.863 -0.157 -0.5025 0.2655
-0.122 -1.857 -1.734 0.9895 0.8065 -1.796 -0.7895 -0.7115 -0.6575 -0.83 -0.98 -0.859 -0.158 -0.509 0.2685
-0.124 -1.857 -1.733 0.991 0.805 -1.795 -0.79 -0.7175 -0.661 -0.831 -0.9785 -0.8565 -0.158 -0.51 0.2725
-0.123 -1.857 -1.734 0.9905 0.806 -1.796 -0.793 -0.7245 -0.665 -0.8325 -0.976 -0.851 -0.1555 -0.509 0.2745
-0.1225 -1.851 -1.728 0.9865 0.8035 -1.79 -0.7975 -0.7345 -0.6715 -0.835 -0.975 -0.85 -0.155 -0.5055 0.277
-0.1195 -1.849 -1.73 0.9845 0.8055 -1.79 -0.803 -0.745 -0.677 -0.8365 -0.976 -0.8475 -0.1535 -0.504 0.281
-0.119 -1.847 -1.728 0.9835 0.805 -1.788 -0.808 -0.7555 -0.6845 -0.8385 -0.9755 -0.8445 -0.1535 -0.5005 0.283
-0.1175 -1.839 -1.722 0.9785 0.8025 -1.78 -0.813 -0.767 -0.694 -0.841 -0.9755 -0.8445 -0.1525 -0.496 0.2855
-0.1145 -1.833 -1.719 0.974 0.8025 -1.776 -0.818 -0.7775 -0.7005 -0.843 -0.9755 -0.8415 -0.1505 -0.4945 0.287
-0.1125 -1.828 -1.716 0.9705 0.802 -1.772 -0.825 -0.7885 -0.708 -0.8455 -0.975 -0.839 -0.1485 -0.493 0.29
-0.112 -1.824 -1.712 0.968 0.8005 -1.768 -0.832 -0.801 -0.7165 -0.8475 -0.9735 -0.837 -0.148 -0.4875 0.295
-0.113 -1.821 -1.708 0.967 0.7975 -1.764 -0.8385 -0.8125 -0.7265 -0.8505 -0.9725 -0.8375 -0.1485 -0.483 0.298
-0.112 -1.815 -1.704 0.964 0.796 -1.76 -0.845 -0.8255 -0.735 -0.854 -0.973 -0.8375 -0.1465 -0.477 0.302
-0.1135 -1.812 -1.698 0.963 0.793 -1.756 -0.85 -0.838 -0.7425 -0.857 -0.9735 -0.8345 -0.1465 -0.4665 0.3075
-0.114 -1.813 -1.7 0.964 0.7935 -1.757 -0.855 -0.8465 -0.7485 -0.8575 -0.971 -0.832 -0.146 -0.467 0.3105
-0.1155 -1.812 -1.696 0.964 0.7905 -1.754 -0.8605 -0.8575 -0.754 -0.859 -0.969 -0.8285 -0.144 -0.4685 0.314
-0.12 -1.81 -1.69 0.965 0.7855 -1.75 -0.8645 -0.868 -0.7615 -0.8625 -0.9685 -0.826 -0.1435 -0.4685 0.318
-0.1195 -1.811 -1.692 0.9655 0.7865 -1.752 -0.868 -0.878 -0.767 -0.863 -0.966 -0.824 -0.1425 -0.4675 0.3225
-0.1215 -1.812 -1.691 0.967 0.785 -1.752 -0.87 -0.885 -0.771 -0.8635 -0.962 -0.8195 -0.1425 -0.4695 0.326
-0.1225 -1.811 -1.688 0.967 0.7835 -1.75 -0.8755 -0.894 -0.777 -0.8655 -0.961 -0.8185 -0.1425 -0.471 0.3295
-0.1225 -1.81 -1.688 0.967 0.783 -1.75 -0.88 -0.903 -0.7825 -0.8645 -0.959 -0.8145 -0.1405 -0.4725 0.3335
-0.122 -1.812 -1.69 0.9675 0.7845 -1.751 -0.8815 -0.9115 -0.789 -0.865 -0.9565 -0.811 -0.1395 -0.4765 0.3375
-0.12 -1.812 -1.693 0.9665 0.787 -1.752 -0.885 -0.922 -0.793 -0.8655 -0.957 -0.81 -0.1405 -0.475 0.342
-0.12 -1.815 -1.694 0.9675 0.7875 -1.754 -0.888 -0.93 -0.798 -0.8655 -0.9535 -0.8065 -0.138 -0.4735 0.3445
-0.1195 -1.808 -1.689 0.964 0.785 -1.749 -0.894 -0.94 -0.806 -0.868 -0.953 -0.8055 -0.1365 -0.472 0.348
-0.1165 -1.81 -1.694 0.9635 0.789 -1.752 -0.898 -0.946 -0.8095 -0.869 -0.9525 -0.8025 -0.1375 -0.474 0.3515
-0.116 -1.812 -1.697 0.9645 0.791 -1.755 -0.901 -0.9545 -0.818 -0.8735 -0.952 -0.803 -0.137 -0.4755 0.356
-0.1155 -1.808 -1.694 0.962 0.789 -1.751 -0.9085 -0.9665 -0.826 -0.8755 -0.956 -0.8055 -0.1365 -0.473 0.359
-0.112 -1.804 -1.692 0.958 0.7905 -1.748 -0.914 -0.974 -0.8305 -0.878 -0.956 -0.8035 -0.1345 -0.465 0.363
-0.1125 -1.802 -1.69 0.9575 0.789 -1.746 -0.9185 -0.982 -0.837 -0.8825 -0.9565 -0.803 -0.1325 -0.463 0.3665
-0.1155 -1.805 -1.69 0.9605 0.7875 -1.748 -0.9235 -0.99 -0.8435 -0.884 -0.9585 -0.805 -0.134 -0.4715 0.3695
-0.115 -1.803 -1.688 0.959 0.7865 -1.745 -0.93 -1 -0.8515 -0.889 -0.96 -0.8065 -0.1355 -0.468 0.3725
-0.116 -1.802 -1.687 0.9595 0.786 -1.744 -0.935 -1.006 -0.857 -0.8915 -0.962 -0.8075 -0.134 -0.463 0.376
-0.1165 -1.801 -1.685 0.959 0.784 -1.743 -0.9385 -1.013 -0.8615 -0.893 -0.962 -0.811 -0.133 -0.4635 0.378
-0.116 -1.803 -1.687 0.96 0.7855 -1.745 -0.9425 -1.02 -0.8665 -0.8955 -0.962 -0.81 -0.1335 -0.469 0.3805
-0.1155 -1.802 -1.685 0.9585 0.7855 -1.744 -0.9445 -1.024 -0.869 -0.8955 -0.962 -0.808 -0.1325 -0.467 0.3835
-0.118 -1.802 -1.685 0.96 0.7835 -1.743 -0.9465 -1.028 -0.872 -0.8955 -0.9605 -0.8075 -0.1315 -0.465 0.386
-0.1195 -1.812 -1.692 0.9655 0.7865 -1.752 -0.949 -1.03 -0.874 -0.8955 -0.9585 -0.806 -0.1305 -0.471 0.39
-0.117 -1.812 -1.695 0.9645 0.7895 -1.754 -0.951 -1.035 -0.8755 -0.896 -0.958 -0.806 -0.1305 -0.4725 0.3915
-0.1175 -1.813 -1.696 0.966 0.7895 -1.755 -0.9525 -1.036 -0.8775 -0.8965 -0.958 -0.8045 -0.1295 -0.4735 0.3945
-0.12 -1.814 -1.694 0.967 0.7875 -1.754 -0.955 -1.04 -0.8785 -0.8955 -0.9565 -0.802 -0.128 -0.4745 0.3955
-0.118 -1.815 -1.698 0.967 0.79 -1.756 -0.957 -1.042 -0.8805 -0.894 -0.9545 -0.8005 -0.128 -0.476 0.398
-0.115 -1.819 -1.705 0.9675 0.795 -1.762 -0.957 -1.045 -0.8805 -0.8935 -0.952 -0.7975 -0.126 -0.4845 0.401
-0.1125 -1.821 -1.708 0.967 0.7975 -1.764 -0.9595 -1.046 -0.8825 -0.8935 -0.95 -0.797 -0.126 -0.486 0.4015
-0.112 -1.815 -1.704 0.9645 0.796 -1.76 -0.9625 -1.05 -0.8855 -0.8955 -0.951 -0.798 -0.1275 -0.4785 0.4045
-0.1105 -1.817 -1.706 0.964 0.798 -1.762 -0.964 -1.054 -0.8865 -0.8955 -0.951 -0.798 -0.1265 -0.483 0.406
-0.107 -1.819 -1.712 0.9635 0.8025 -1.766 -0.966 -1.054 -0.8885 -0.8945 -0.95 -0.7955 -0.1245 -0.486 0.4085
-0.105 -1.815 -1.71 0.96 0.8025 -1.762 -0.97 -1.058 -0.891 -0.897 -0.9515 -0.7965 -0.124 -0.4825 0.41
-0.1055 -1.814 -1.709 0.96 0.802 -1.762 -0.975 -1.062 -0.894 -0.898 -0.9515 -0.7975 -0.123 -0.485 0.411
-0.104 -1.815 -1.71 0.9595 0.8035 -1.762 -0.9775 -1.065 -0.896 -0.8985 -0.952 -0.797 -0.121 -0.4865 0.4115
-0.1025 -1.813 -1.711 0.958 0.8045 -1.762 -0.9815 -1.067 -0.8975 -0.8985 -0.954 -0.7985 -0.119 -0.4855 0.412
-0.103 -1.814 -1.712 0.9585 0.8045 -1.763 -0.9835 -1.071 -0.9 -0.9 -0.9555 -0.7985 -0.1185 -0.4885 0.4145
-0.1 -1.812 -1.712 0.956 0.806 -1.762 -0.9875 -1.073 -0.902 -0.9025 -0.959 -0.803 -0.12 -0.486 0.415
-0.098 -1.808 -1.71 0.953 0.8065 -1.759 -0.9905 -1.075 -0.904 -0.902 -0.96 -0.8035 -0.118 -0.4825 0.416
-0.0985 -1.813 -1.716 0.956 0.8085 -1.764 -0.9875 -1.073 -0.9045 -0.9005 -0.957 -0.8 -0.1175 -0.4865 0.417
-0.099 -1.815 -1.716 0.9575 0.809 -1.766 -0.991 -1.073 -0.9045 -0.8995 -0.9595 -0.8025 -0.118 -0.483 0.418
-0.1005 -1.815 -1.714 0.958 0.8075 -1.765 -0.9905 -1.075 -0.904 -0.899 -0.96 -0.8015 -0.1165 -0.487 0.418
-0.101 -1.821 -1.72 0.9615 0.81 -1.77 -0.9905 -1.071 -0.902 -0.8975 -0.957 -0.8 -0.1155 -0.495 0.4195
-0.1015 -1.825 -1.723 0.9635 0.811 -1.774 -0.991 -1.072 -0.9 -0.8955 -0.9545 -0.7995 -0.113 -0.491 0.421
-0.1015 -1.827 -1.726 0.9645 0.8125 -1.776 -0.9885 -1.069 -0.897 -0.8925 -0.952 -0.798 -0.1115 -0.4945 0.4215
-0.1015 -1.827 -1.726 0.965 0.8125 -1.777 -0.99 -1.067 -0.8965 -0.8905 -0.9515 -0.797 -0.111 -0.5005 0.4225
-0.102 -1.828 -1.726 0.965 0.812 -1.777 -0.9895 -1.067 -0.896 -0.891 -0.9505 -0.7965 -0.11 -0.503 0.4215
-0.099 -1.831 -1.732 0.965 0.817 -1.782 -0.987 -1.063 -0.8915 -0.889 -0.946 -0.793 -0.1085 -0.505 0.4225
-0.095 -1.833 -1.738 0.964 0.8215 -1.785 -0.987 -1.062 -0.89 -0.8875 -0.944 -0.792 -0.108 -0.5005 0.423
-0.096 -1.831 -1.734 0.9635 0.8195 -1.782 -0.987 -1.062 -0.8915 -0.8885 -0.945 -0.795 -0.1105 -0.5065 0.421
-0.0955 -1.835 -1.74 0.9655 0.8225 -1.788 -0.9875 -1.06 -0.89 -0.888 -0.9445 -0.794 -0.111 -0.518 0.4225
-0.091 -1.837 -1.746 0.964 0.828 -1.792 -0.989 -1.059 -0.891 -0.8855 -0.943 -0.794 -0.1105 -0.514 0.4225
-0.088 -1.833 -1.744 0.961 0.8285 -1.788 -0.989 -1.058 -0.891 -0.8835 -0.9435 -0.7945 -0.1105 -0.5105 0.4205
-0.087 -1.829 -1.742 0.9585 0.828 -1.786 -0.9905 -1.058 -0.8905 -0.8855 -0.945 -0.795 -0.1095 -0.5095 0.4195
-0.0855 -1.829 -1.743 0.9575 0.829 -1.786 -0.9925 -1.058 -0.892 -0.8885 -0.9445 -0.797 -0.1085 -0.5085 0.419
-0.083 -1.829 -1.746 0.9565 0.8315 -1.788 -0.995 -1.06 -0.894 -0.891 -0.946 -0.7995 -0.1085 -0.5075 0.42
-0.082 -1.829 -1.747 0.956 0.8325 -1.788 -0.996 -1.06 -0.8925 -0.8905 -0.9465 -0.8 -0.1085 -0.503 0.42
-0.0835 -1.827 -1.744 0.956 0.8305 -1.786 -0.9975 -1.06 -0.893 -0.8905 -0.948 -0.8005 -0.1085 -0.5 0.4205
-0.084 -1.827 -1.742 0.9555 0.829 -1.784 -1 -1.061 -0.895 -0.891 -0.951 -0.804 -0.1095 -0.498 0.4195
-0.0845 -1.831 -1.747 0.958 0.8315 -1.79 -0.9975 -1.059 -0.892 -0.8885 -0.9495 -0.804 -0.109 -0.506 0.419
-0.086 -1.83 -1.744 0.9585 0.829 -1.787 -0.9975 -1.058 -0.8905 -0.889 -0.9505 -0.804 -0.109 -0.5095 0.4195
-0.088 -1.829 -1.742 0.959 0.827 -1.786 -0.9965 -1.057 -0.889 -0.886 -0.9495 -0.8045 -0.1085 -0.506 0.4195
-0.0875 -1.836 -1.748 0.962 0.8305 -1.792 -0.9945 -1.054 -0.887 -0.8825 -0.947 -0.803 -0.108 -0.5065 0.42
-0.0885 -1.839 -1.75 0.9635 0.831 -1.794 -0.994 -1.051 -0.8835 -0.882 -0.9455 -0.8025 -0.1095 -0.507 0.4205
-0.0895 -1.841 -1.752 0.9655 0.831 -1.796 -0.99 -1.048 -0.881 -0.8785 -0.945 -0.8015 -0.11 -0.512 0.4205
-0.09 -1.843 -1.753 0.9665 0.832 -1.798 -0.9875 -1.044 -0.878 -0.8745 -0.9425 -0.8 -0.11 -0.518 0.4185
-0.0905 -1.845 -1.754 0.9675 0.8315 -1.799 -0.987 -1.042 -0.8755 -0.872 -0.941 -0.799 -0.1085 -0.5225 0.419
-0.0885 -1.849 -1.76 0.969 0.8355 -1.804 -0.9855 -1.04 -0.873 -0.8715 -0.941 -0.797 -0.108 -0.527 0.419
-0.089 -1.851 -1.762 0.97 0.837 -1.806 -0.983 -1.038 -0.8695 -0.87 -0.939 -0.797 -0.1105 -0.529 0.4175
-0.088 -1.847 -1.758 0.9675 0.8355 -1.802 -0.9825 -1.038 -0.87 -0.868 -0.9375 -0.7975 -0.109 -0.528 0.4155
-0.086 -1.849 -1.762 0.9675 0.838 -1.805 -0.982 -1.036 -0.867 -0.8675 -0.9365 -0.795 -0.108 -0.5305 0.414
-0.0825 -1.85 -1.767 0.9665 0.8425 -1.808 -0.9805 -1.035 -0.8665 -0.869 -0.939 -0.796 -0.108 -0.5315 0.4155
-0.08 -1.843 -1.763 0.962 0.8415 -1.803 -0.9805 -1.034 -0.867 -0.869 -0.939 -0.796 -0.1055 -0.526 0.416
-0.082 -1.843 -1.76 0.963 0.839 -1.802 -0.9825 -1.034 -0.866 -0.869 -0.9385 -0.797 -0.107 -0.525 0.4155
-0.0815 -1.842 -1.76 0.962 0.8395 -1.801 -0.9835 -1.036 -0.868 -0.8705 -0.941 -0.7995 -0.107 -0.528 0.4145
-0.0805 -1.839 -1.758 0.96 0.8395 -1.799 -0.985 -1.036 -0.8695 -0.872 -0.9425 -0.802 -0.107 -0.527 0.412
-0.0785 -1.836 -1.757 0.9575 0.8395 -1.796 -0.9865 -1.036 -0.8705 -0.873 -0.9435 -0.804 -0.109 -0.523 0.4115
-0.0775 -1.831 -1.754 0.955 0.8385 -1.792 -0.9855 -1.036 -0.871 -0.873 -0.9445 -0.804 -0.108 -0.523 0.4115
-0.078 -1.833 -1.754 0.9555 0.8385 -1.794 -0.9855 -1.036 -0.8705 -0.874 -0.9455 -0.807 -0.1095 -0.5225 0.4115
-0.0795 -1.837 -1.756 0.958 0.839 -1.796 -0.9835 -1.034 -0.869 -0.8735 -0.9455 -0.805 -0.1105 -0.5205 0.4115
-0.0815 -1.834 -1.752 0.958 0.836 -1.793 -0.985 -1.034 -0.8685 -0.8735 -0.9455 -0.805 -0.111 -0.524 0.4095
-0.081 -1.833 -1.751 0.957 0.835 -1.792 -0.985 -1.032 -0.8665 -0.872 -0.944 -0.8055 -0.1115 -0.5225 0.4095
-0.081 -1.835 -1.754 0.9585 0.837 -1.794 -0.9815 -1.029 -0.865 -0.8685 -0.942 -0.8025 -0.1105 -0.5255 0.4095
-0.0805 -1.837 -1.757 0.9595 0.8385 -1.797 -0.9795 -1.027 -0.8635 -0.868 -0.942 -0.802 -0.111 -0.534 0.408
-0.081 -1.84 -1.758 0.9605 0.839 -1.799 -0.977 -1.024 -0.861 -0.8665 -0.942 -0.8005 -0.111 -0.533 0.41
-0.08 -1.839 -1.758 0.96 0.8395 -1.799 -0.9755 -1.022 -0.8585 -0.866 -0.9415 -0.8 -0.11 -0.534 0.41
-0.08 -1.84 -1.76 0.9605 0.84 -1.8 -0.9735 -1.022 -0.8555 -0.864 -0.94 -0.799 -0.1095 -0.534 0.4085
-0.079 -1.843 -1.764 0.961 0.8425 -1.803 -0.971 -1.017 -0.8535 -0.861 -0.938 -0.7955 -0.1095 -0.5395 0.4095
-0.0775 -1.843 -1.765 0.9605 0.844 -1.804 -0.9705 -1.016 -0.853 -0.8615 -0.937 -0.796 -0.109 -0.535 0.41
-0.078 -1.839 -1.761 0.959 0.8415 -1.8 -0.9695 -1.017 -0.8525 -0.8615 -0.9375 -0.798 -0.11 -0.529 0.408
-0.0765 -1.842 -1.765 0.9595 0.8445 -1.804 -0.97 -1.016 -0.851 -0.8595 -0.938 -0.798 -0.11 -0.538 0.408
-0.0755 -1.844 -1.768 0.96 0.8465 -1.806 -0.969 -1.016 -0.851 -0.86 -0.9385 -0.797 -0.1105 -0.5375 0.409
-0.0775 -1.839 -1.762 0.9585 0.8425 -1.8 -0.969 -1.017 -0.851 -0.861 -0.9385 -0.798 -0.113 -0.534 0.4065
-0.0765 -1.835 -1.76 0.9565 0.8415 -1.798 -0.9715 -1.016 -0.853 -0.862 -0.94 -0.8 -0.112 -0.531 0.4055
-0.073 -1.833 -1.76 0.953 0.844 -1.796 -0.9735 -1.02 -0.855 -0.864 -0.943 -0.8015 -0.1125 -0.53 0.404
-0.072 -1.833 -1.76 0.9525 0.845 -1.796 -0.976 -1.022 -0.8565 -0.8665 -0.9455 -0.8035 -0.1125 -0.535 0.4035
-0.073 -1.831 -1.758 0.9525 0.843 -1.795 -0.9765 -1.021 -0.8575 -0.8675 -0.946 -0.8045 -0.1125 -0.529 0.403
-0.0745 -1.828 -1.754 0.9515 0.84 -1.791 -0.9765 -1.023 -0.8575 -0.869 -0.9475 -0.8065 -0.114 -0.523 0.4025
-0.0725 -1.825 -1.753 0.949 0.8405 -1.789 -0.979 -1.024 -0.8575 -0.8695 -0.949 -0.807 -0.1125 -0.5225 0.403
-0.074 -1.829 -1.755 0.9515 0.841 -1.792 -0.9775 -1.022 -0.858 -0.8685 -0.9465 -0.8055 -0.112 -0.521 0.403
-0.078 -1.829 -1.752 0.954 0.837 -1.79 -0.975 -1.02 -0.8575 -0.8675 -0.945 -0.806 -0.1125 -0.527 0.4025
-0.08 -1.83 -1.75 0.9555 0.835 -1.79 -0.9755 -1.022 -0.8555 -0.8665 -0.9465 -0.806 -0.1135 -0.5285 0.4015
-0.0835 -1.838 -1.754 0.9615 0.8355 -1.796 -0.9745 -1.021 -0.854 -0.8655 -0.945 -0.8045 -0.1135 -0.529 0.4025
-0.086 -1.841 -1.756 0.9645 0.835 -1.798 -0.9725 -1.02 -0.851 -0.864 -0.943 -0.803 -0.1135 -0.527 0.404
-0.09 -1.845 -1.755 0.9675 0.8325 -1.8 -0.9705 -1.016 -0.8485 -0.8635 -0.9435 -0.8025 -0.1155 -0.5275 0.404
-0.0915 -1.847 -1.755 0.969 0.832 -1.801 -0.9695 -1.014 -0.8475 -0.862 -0.941 -0.804 -0.117 -0.533 0.4025
-0.092 -1.846 -1.754 0.969 0.831 -1.8 -0.9675 -1.014 -0.847 -0.86 -0.94 -0.8025 -0.115 -0.5375 0.402
-0.093 -1.849 -1.756 0.9715 0.832 -1.803 -0.967 -1.013 -0.8445 -0.8585 -0.94 -0.7995 -0.1135 -0.54 0.4025
-0.092 -1.849 -1.758 0.971 0.833 -1.804 -0.966 -1.012 -0.844 -0.859 -0.94 -0.7995 -0.1155 -0.5355 0.402
-0.0915 -1.843 -1.752 0.9675 0.8305 -1.798 -0.9665 -1.012 -0.845 -0.859 -0.942 -0.8005 -0.116 -0.5345 0.4
-0.09 -1.847 -1.756 0.9685 0.8335 -1.802 -0.9665 -1.012 -0.845 -0.858 -0.9415 -0.8005 -0.116 -0.5375 0.401
-0.093 -1.851 -1.758 0.9725 0.833 -1.805 -0.9665 -1.014 -0.8465 -0.8605 -0.9425 -0.8025 -0.117 -0.5405 0.4015
-0.0955 -1.851 -1.755 0.973 0.83 -1.802 -0.971 -1.018 -0.849 -0.8625 -0.945 -0.805 -0.117 -0.5385 0.4
-0.0955 -1.849 -1.753 0.9725 0.829 -1.8 -0.974 -1.018 -0.8515 -0.864 -0.9455 -0.808 -0.1185 -0.538 0.3995
-0.0965 -1.847 -1.75 0.9715 0.8275 -1.798 -0.974 -1.02 -0.853 -0.8645 -0.947 -0.809 -0.119 -0.535 0.399
-0.0955 -1.845 -1.748 0.97 0.827 -1.796 -0.9755 -1.024 -0.854 -0.8665 -0.948 -0.8095 -0.1185 -0.5285 0.399
-0.095 -1.843 -1.748 0.9695 0.827 -1.796 -0.976 -1.026 -0.8565 -0.87 -0.9485 -0.81 -0.119 -0.5305 0.3985
-0.095 -1.842 -1.747 0.9685 0.8265 -1.794 -0.978 -1.028 -0.858 -0.8715 -0.9495 -0.8125 -0.121 -0.529 0.398
-0.0945 -1.84 -1.745 0.9675 0.8255 -1.792 -0.981 -1.03 -0.859 -0.8725 -0.95 -0.8155 -0.1215 -0.531 0.3965
-0.095 -1.843 -1.748 0.969 0.827 -1.796 -0.9795 -1.028 -0.859 -0.8715 -0.9495 -0.8135 -0.1185 -0.5335 0.397
-0.0955 -1.843 -1.747 0.969 0.826 -1.794 -0.98 -1.028 -0.8585 -0.871 -0.951 -0.8135 -0.119 -0.528 0.398
-0.0955 -1.841 -1.746 0.968 0.8255 -1.793 -0.981 -1.029 -0.8585 -0.871 -0.951 -0.8125 -0.1185 -0.53 0.397
-0.0955 -1.843 -1.748 0.9695 0.8265 -1.796 -0.9775 -1.027 -0.858 -0.869 -0.949 -0.8105 -0.119 -0.532 0.3975
-0.0955 -1.845 -1.75 0.9705 0.8275 -1.798 -0.9755 -1.024 -0.8555 -0.867 -0.946 -0.808 -0.1185 -0.5345 0.3995
-0.098 -1.849 -1.752 0.974 0.827 -1.8 -0.976 -1.024 -0.855 -0.8665 -0.947 -0.8065 -0.1185 -0.535 0.399
-0.099 -1.852 -1.753 0.9755 0.8275 -1.802 -0.9745 -1.023 -0.8555 -0.865 -0.9475 -0.8075 -0.1205 -0.5365 0.3995
-0.098 -1.849 -1.751 0.9735 0.827 -1.8 -0.972 -1.022 -0.8555 -0.8625 -0.9455 -0.8065 -0.12 -0.54 0.3985
-0.098 -1.851 -1.752 0.9745 0.827 -1.802 -0.969 -1.022 -0.8545 -0.861 -0.945 -0.8035 -0.1195 -0.539 0.3985
-0.098 -1.855 -1.756 0.9765 0.8295 -1.806 -0.97 -1.022 -0.853 -0.8625 -0.944 -0.802 -0.119 -0.5465 0.4015
-0.0975 -1.851 -1.753 0.974 0.828 -1.802 -0.971 -1.024 -0.8545 -0.864 -0.9435 -0.804 -0.1215 -0.543 0.4015
-0.0945 -1.85 -1.756 0.9725 0.831 -1.803 -0.971 -1.026 -0.8545 -0.862 -0.943 -0.8035 -0.1195 -0.5375 0.4025
-0.094 -1.851 -1.758 0.973 0.832 -1.804 -0.9735 -1.025 -0.855 -0.8635 -0.946 -0.804 -0.119 -0.539 0.404
-0.095 -1.848 -1.754 0.9715 0.8295 -1.8 -0.975 -1.028 -0.8565 -0.8665 -0.9455 -0.806 -0.12 -0.537 0.4025
-0.092 -1.845 -1.754 0.969 0.831 -1.8 -0.9785 -1.031 -0.8605 -0.867 -0.946 -0.805 -0.118 -0.5365 0.4015
-0.094 -1.845 -1.752 0.97 0.8295 -1.798 -0.979 -1.032 -0.861 -0.868 -0.9475 -0.8055 -0.1185 -0.5365 0.402
-0.0945 -1.846 -1.752 0.9705 0.8285 -1.798 -0.9815 -1.035 -0.8625 -0.87 -0.9475 -0.8065 -0.1175 -0.536 0.402
-0.0915 -1.844 -1.752 0.968 0.8305 -1.798 -0.987 -1.038 -0.8665 -0.8715 -0.9495 -0.8085 -0.1175 -0.535 0.4015
-0.095 -1.843 -1.748 0.969 0.827 -1.795 -0.9865 -1.04 -0.867 -0.8725 -0.9495 -0.8105 -0.118 -0.532 0.4035
-0.098 -1.841 -1.742 0.9695 0.8225 -1.792 -0.989 -1.042 -0.869 -0.8745 -0.952 -0.8135 -0.119 -0.5275 0.4035
-0.0955 -1.844 -1.748 0.97 0.8265 -1.796 -0.9875 -1.043 -0.869 -0.8735 -0.9505 -0.8125 -0.119 -0.5295 0.4045
-0.0965 -1.843 -1.746 0.97 0.825 -1.794 -0.9865 -1.043 -0.869 -0.874 -0.9485 -0.8105 -0.118 -0.5295 0.405
-0.0995 -1.839 -1.738 0.9695 0.8195 -1.788 -0.988 -1.044 -0.869 -0.874 -0.95 -0.812 -0.12 -0.529 0.403
-0.1005 -1.843 -1.742 0.972 0.821 -1.792 -0.9835 -1.042 -0.868 -0.8725 -0.9465 -0.8095 -0.12 -0.5345 0.403
-0.103 -1.849 -1.746 0.9765 0.822 -1.798 -0.9825 -1.04 -0.867 -0.869 -0.945 -0.807 -0.121 -0.538 0.4055
-0.1025 -1.853 -1.751 0.978 0.8245 -1.802 -0.983 -1.041 -0.866 -0.8685 -0.9435 -0.807 -0.121 -0.5385 0.406
-0.0985 -1.851 -1.753 0.975 0.8275 -1.802 -0.9825 -1.041 -0.8675 -0.8705 -0.943 -0.8045 -0.1205 -0.538 0.406
-0.101 -1.851 -1.75 0.976 0.8245 -1.8 -0.9825 -1.042 -0.8665 -0.867 -0.943 -0.804 -0.12 -0.539 0.4075
-0.1035 -1.853 -1.75 0.979 0.8235 -1.802 -0.983 -1.042 -0.8655 -0.8645 -0.941 -0.8025 -0.118 -0.545 0.407
-0.102 -1.857 -1.754 0.9795 0.826 -1.805 -0.9835 -1.041 -0.8655 -0.8645 -0.9425 -0.8015 -0.118 -0.5435 0.407
-0.103 -1.853 -1.75 0.978 0.824 -1.802 -0.9845 -1.042 -0.868 -0.8665 -0.943 -0.805 -0.12 -0.5385 0.4065
-0.1015 -1.855 -1.753 0.978 0.8265 -1.804 -0.9865 -1.044 -0.869 -0.868 -0.943 -0.805 -0.1195 -0.5485 0.4075
-0.099 -1.856 -1.758 0.978 0.8295 -1.807 -0.988 -1.047 -0.87 -0.8685 -0.943 -0.8055 -0.1205 -0.5495 0.4085
-0.098 -1.851 -1.754 0.975 0.828 -1.802 -0.989 -1.048 -0.872 -0.871 -0.945 -0.806 -0.122 -0.5415 0.409
-0.0945 -1.847 -1.752 0.971 0.829 -1.799 -0.992 -1.05 -0.8745 -0.8735 -0.947 -0.8055 -0.12 -0.5405 0.4095
-0.0955 -1.846 -1.75 0.971 0.828 -1.798 -0.995 -1.054 -0.878 -0.874 -0.9465 -0.807 -0.1195 -0.5415 0.409
-0.0975 -1.846 -1.748 0.972 0.826 -1.797 -0.9955 -1.056 -0.8795 -0.8755 -0.947 -0.8085 -0.12 -0.54 0.409
-0.097 -1.843 -1.747 0.9705 0.8255 -1.795 -0.9985 -1.059 -0.8815 -0.8775 -0.948 -0.8095 -0.12 -0.537 0.407
-0.0965 -1.841 -1.744 0.969 0.824 -1.793 -1 -1.062 -0.883 -0.8775 -0.949 -0.8105 -0.12 -0.5315 0.407
-0.0975 -1.841 -1.743 0.969 0.823 -1.792 -1.002 -1.062 -0.8835 -0.879 -0.9485 -0.8105 -0.1195 -0.529 0.407
-0.097 -1.843 -1.746 0.9705 0.8245 -1.794 -1.002 -1.063 -0.884 -0.8785 -0.9475 -0.808 -0.119 -0.534 0.411
-0.095 -1.839 -1.744 0.967 0.8245 -1.791 -1.002 -1.065 -0.884 -0.8765 -0.9475 -0.8075 -0.118 -0.5345 0.411
-0.0985 -1.841 -1.742 0.9695 0.822 -1.791 -1.002 -1.063 -0.8835 -0.8755 -0.947 -0.807 -0.117 -0.5375 0.411
-0.1025 -1.847 -1.744 0.975 0.8205 -1.795 -1.002 -1.063 -0.882 -0.8745 -0.945 -0.806 -0.117 -0.54 0.413
-0.1035 -1.849 -1.746 0.9765 0.8215 -1.798 -1.002 -1.065 -0.882 -0.873 -0.944 -0.806 -0.1165 -0.5405 0.4135
-0.1045 -1.853 -1.749 0.979 0.8225 -1.802 -1 -1.063 -0.882 -0.8715 -0.943 -0.805 -0.117 -0.5435 0.4165
-0.1055 -1.853 -1.748 0.9795 0.8215 -1.8 -1 -1.065 -0.881 -0.871 -0.9415 -0.807 -0.117 -0.545 0.416
-0.105 -1.853 -1.748 0.9795 0.822 -1.801 -0.998 -1.062 -0.8795 -0.8715 -0.9425 -0.806 -0.1165 -0.544 0.4165
-0.1055 -1.854 -1.748 0.98 0.8215 -1.801 -0.997 -1.061 -0.8775 -0.8695 -0.9395 -0.803 -0.116 -0.545 0.4185
-0.1045 -1.853 -1.748 0.979 0.822 -1.8 -0.9975 -1.061 -0.878 -0.8675 -0.938 -0.803 -0.1165 -0.5465 0.4185
-0.102 -1.851 -1.749 0.977 0.8235 -1.8 -0.999 -1.062 -0.8805 -0.8685 -0.94 -0.8055 -0.117 -0.5465 0.4175
-0.1015 -1.853 -1.752 0.9775 0.8255 -1.802 -0.999 -1.063 -0.88 -0.8685 -0.9405 -0.805 -0.117 -0.5505 0.418
-0.1005 -1.855 -1.754 0.978 0.827 -1.805 -1.001 -1.065 -0.8815 -0.8685 -0.9435 -0.8035 -0.1175 -0.5535 0.4185
-0.096 -1.851 -1.754 0.9735 0.8295 -1.802 -1.004 -1.065 -0.882 -0.869 -0.9445 -0.8035 -0.1175 -0.552 0.416
-0.0925 -1.847 -1.754 0.9695 0.831 -1.8 -1.005 -1.066 -0.885 -0.872 -0.945 -0.804 -0.1165 -0.549 0.4155
-0.095 -1.847 -1.752 0.9715 0.829 -1.8 -1.008 -1.071 -0.889 -0.875 -0.9475 -0.805 -0.115 -0.553 0.4175
-0.0945 -1.846 -1.752 0.9705 0.8285 -1.798 -1.01 -1.073 -0.8885 -0.876 -0.947 -0.8055 -0.1155 -0.548 0.417
-0.0945 -1.843 -1.749 0.969 0.8275 -1.796 -1.012 -1.075 -0.8925 -0.8795 -0.9485 -0.8055 -0.116 -0.5435 0.417
-0.0915 -1.839 -1.748 0.9655 0.828 -1.793 -1.014 -1.076 -0.8945 -0.882 -0.95 -0.807 -0.116 -0.541 0.4175
-0.089 -1.836 -1.747 0.963 0.8295 -1.792 -1.016 -1.077 -0.8945 -0.8815 -0.949 -0.8085 -0.1165 -0.5345 0.417
-0.0905 -1.843 -1.752 0.967 0.831 -1.798 -1.016 -1.077 -0.8935 -0.8815 -0.9465 -0.8055 -0.116 -0.5395 0.4185
-0.0935 -1.84 -1.746 0.967 0.827 -1.794 -1.016 -1.077 -0.8925 -0.883 -0.947 -0.8065 -0.117 -0.5425 0.4185
-0.099 -1.839 -1.74 0.9695 0.821 -1.79 -1.018 -1.079 -0.894 -0.8805 -0.948 -0.8075 -0.1155 -0.5425 0.4185
-0.104 -1.851 -1.747 0.9775 0.822 -1.799 -1.016 -1.079 -0.8925 -0.88 -0.945 -0.806 -0.1155 -0.542 0.4185
-0.1065 -1.855 -1.75 0.9815 0.822 -1.802 -1.013 -1.079 -0.892 -0.881 -0.945 -0.8045 -0.117 -0.548 0.4205
-0.102 -1.855 -1.753 0.979 0.8255 -1.804 -1.013 -1.079 -0.89 -0.879 -0.9425 -0.8035 -0.115 -0.5545 0.422
-0.1015 -1.857 -1.756 0.9795 0.827 -1.806 -1.014 -1.078 -0.889 -0.878 -0.94 -0.8035 -0.115 -0.5535 0.4225
-0.105 -1.859 -1.754 0.9825 0.825 -1.807 -1.012 -1.075 -0.889 -0.8755 -0.9395 -0.8015 -0.1155 -0.55 0.4235
-0.103 -1.859 -1.757 0.9815 0.8275 -1.808 -1.012 -1.075 -0.8885 -0.8715 -0.936 -0.7995 -0.1125 -0.5495 0.424
-0.1015 -1.859 -1.758 0.9805 0.8285 -1.808 -1.01 -1.073 -0.887 -0.8705 -0.934 -0.7995 -0.112 -0.552 0.425
-0.102 -1.857 -1.755 0.98 0.8265 -1.806 -1.012 -1.073 -0.886 -0.87 -0.936 -0.801 -0.113 -0.5495 0.423
-0.1005 -1.86 -1.76 0.9805 0.83 -1.81 -1.012 -1.074 -0.8875 -0.872 -0.937 -0.802 -0.1145 -0.555 0.4235
-0.099 -1.861 -1.762 0.98 0.832 -1.812 -1.014 -1.075 -0.889 -0.8735 -0.9385 -0.802 -0.115 -0.5565 0.425
-0.097 -1.857 -1.76 0.977 0.8315 -1.808 -1.016 -1.079 -0.8895 -0.873 -0.939 -0.802 -0.1125 -0.5565 0.4235
-0.0955 -1.855 -1.76 0.9755 0.8325 -1.807 -1.017 -1.08 -0.8895 -0.873 -0.9385 -0.804 -0.113 -0.555 0.423
-0.0935 -1.849 -1.755 0.9715 0.831 -1.802 -1.017 -1.08 -0.891 -0.872 -0.9385 -0.8045 -0.1115 -0.546 0.4235
-0.0935 -1.849 -1.756 0.9715 0.8315 -1.802 -1.02 -1.081 -0.8915 -0.8715 -0.9375 -0.8045 -0.109 -0.5515 0.422
-0.095 -1.85 -1.755 0.9725 0.8305 -1.802 -1.024 -1.083 -0.894 -0.8745 -0.939 -0.8065 -0.1095 -0.5515 0.422
-0.094 -1.847 -1.752 0.9705 0.8295 -1.8 -1.025 -1.088 -0.8995 -0.8775 -0.941 -0.808 -0.1095 -0.545 0.424
-0.0965 -1.847 -1.751 0.972 0.8275 -1.799 -1.028 -1.089 -0.8985 -0.876 -0.94 -0.8085 -0.1095 -0.5435 0.4245
-0.097 -1.849 -1.752 0.973 0.828 -1.8 -1.026 -1.088 -0.898 -0.873 -0.9395 -0.8055 -0.1065 -0.549 0.4255
-0.096 -1.847 -1.752 0.972 0.828 -1.8 -1.028 -1.089 -0.901 -0.874 -0.94 -0.806 -0.107 -0.5485 0.4245
-0.0985 -1.849 -1.75 0.9735 0.826 -1.8 -1.027 -1.089 -0.9 -0.875 -0.9415 -0.8085 -0.108 -0.5465 0.4245
-0.1 -1.856 -1.756 0.9785 0.828 -1.806 -1.024 -1.085 -0.8975 -0.8715 -0.9395 -0.806 -0.1085 -0.549 0.425
-0.099 -1.857 -1.758 0.9785 0.83 -1.808 -1.022 -1.083 -0.8945 -0.868 -0.938 -0.804 -0.108 -0.549 0.425
-0.1005 -1.86 -1.76 0.9805 0.8295 -1.81 -1.022 -1.083 -0.894 -0.8685 -0.9395 -0.8045 -0.1105 -0.5525 0.425
-0.1015 -1.862 -1.76 0.982 0.83 -1.812 -1.023 -1.083 -0.8945 -0.8695 -0.9395 -0.8055 -0.1115 -0.5585 0.4255
-0.099 -1.861 -1.762 0.98 0.8315 -1.812 -1.024 -1.083 -0.893 -0.868 -0.9385 -0.804 -0.111 -0.5585 0.426
-0.0965 -1.861 -1.764 0.979 0.834 -1.813 -1.02 -1.081 -0.8905 -0.8645 -0.9345 -0.7995 -0.1085 -0.5555 0.4255
-0.095 -1.862 -1.767 0.979 0.8365 -1.815 -1.018 -1.079 -0.89 -0.8635 -0.9325 -0.799 -0.107 -0.56 0.4265
-0.0975 -1.863 -1.765 0.9805 0.834 -1.814 -1.02 -1.082 -0.891 -0.8645 -0.9365 -0.803 -0.111 -0.558 0.4255
-0.094 -1.864 -1.77 0.9795 0.838 -1.817 -1.02 -1.081 -0.89 -0.8645 -0.936 -0.802 -0.1095 -0.556 0.426
-0.0925 -1.864 -1.772 0.9785 0.84 -1.817 -1.02 -1.082 -0.889 -0.8625 -0.934 -0.801 -0.1095 -0.5555 0.424
-0.092 -1.857 -1.766 0.9755 0.837 -1.812 -1.022 -1.083 -0.8905 -0.8625 -0.9345 -0.8025 -0.111 -0.5565 0.424
-0.0865 -1.853 -1.766 0.97 0.84 -1.809 -1.024 -1.083 -0.891 -0.862 -0.935 -0.8035 -0.111 -0.5605 0.4265
-0.0855 -1.851 -1.765 0.9685 0.84 -1.808 -1.028 -1.085 -0.8915 -0.8625 -0.9375 -0.805 -0.1105 -0.5585 0.4245
-0.084 -1.847 -1.764 0.966 0.84 -1.806 -1.03 -1.087 -0.895 -0.864 -0.9395 -0.8045 -0.108 -0.5545 0.425
-0.084 -1.847 -1.763 0.966 0.8395 -1.805 -1.029 -1.088 -0.897 -0.865 -0.9405 -0.805 -0.1095 -0.55 0.4255
-0.088 -1.849 -1.762 0.969 0.837 -1.806 -1.032 -1.091 -0.899 -0.868 -0.9455 -0.8095 -0.111 -0.5495 0.427
-0.0855 -1.845 -1.759 0.9655 0.837 -1.802 -1.035 -1.091 -0.9 -0.8695 -0.9465 -0.8125 -0.1115 -0.549 0.426
-0.0905 -1.849 -1.759 0.9705 0.8345 -1.804 -1.033 -1.092 -0.901 -0.871 -0.9455 -0.811 -0.1125 -0.552 0.4235
-0.0925 -1.847 -1.755 0.97 0.8315 -1.801 -1.032 -1.092 -0.8995 -0.871 -0.944 -0.8095 -0.1105 -0.5495 0.4225
-0.0875 -1.843 -1.754 0.965 0.8335 -1.798 -1.031 -1.089 -0.8965 -0.869 -0.941 -0.809 -0.1095 -0.5485 0.418
-0.0875 -1.849 -1.76 0.968 0.837 -1.804 -1.028 -1.085 -0.8945 -0.868 -0.94 -0.806 -0.11 -0.557 0.4195
-0.087 -1.849 -1.762 0.9685 0.838 -1.806 -1.025 -1.083 -0.895 -0.869 -0.9385 -0.806 -0.112 -0.56 0.421
-0.088 -1.852 -1.764 0.9705 0.838 -1.808 -1.026 -1.083 -0.894 -0.8695 -0.937 -0.8065 -0.113 -0.5575 0.419
-0.085 -1.851 -1.766 0.968 0.8405 -1.808 -1.026 -1.079 -0.89 -0.8655 -0.934 -0.8045 -0.1115 -0.5535 0.417
-0.0845 -1.849 -1.764 0.9665 0.84 -1.806 -1.024 -1.079 -0.8855 -0.862 -0.9315 -0.8015 -0.1115 -0.554 0.415
-0.085 -1.844 -1.758 0.9645 0.837 -1.802 -1.02 -1.075 -0.8795 -0.8545 -0.9275 -0.797 -0.111 -0.5505 0.411
-0.0825 -1.835 -1.753 0.9595 0.8355 -1.794 -1.018 -1.069 -0.875 -0.848 -0.9235 -0.795 -0.11 -0.543 0.406
-0.08 -1.826 -1.746 0.9535 0.833 -1.786 -1.018 -1.069 -0.872 -0.847 -0.9225 -0.792 -0.109 -0.5395 0.405
-0.0755 -1.822 -1.747 0.949 0.836 -1.784 -1.014 -1.066 -0.867 -0.8425 -0.9175 -0.787 -0.109 -0.5395 0.403
-0.0735 -1.823 -1.749 0.9485 0.838 -1.786 -1.012 -1.066 -0.867 -0.8435 -0.915 -0.7855 -0.1085 -0.535 0.4025
-0.0735 -1.815 -1.742 0.9445 0.8345 -1.778 -1.012 -1.066 -0.866 -0.842 -0.9155 -0.7865 -0.109 -0.522 0.3985
-0.0785 -1.811 -1.732 0.945 0.827 -1.772 -1.01 -1.065 -0.864 -0.8395 -0.915 -0.7845 -0.1075 -0.5185 0.3955
-0.078 -1.809 -1.73 0.944 0.8265 -1.77 -1.012 -1.067 -0.8665 -0.841 -0.9165 -0.7865 -0.1065 -0.523 0.3975
-0.0705 -1.803 -1.732 0.9365 0.8315 -1.768 -1.012 -1.067 -0.863 -0.8385 -0.9145 -0.785 -0.1035 -0.5205 0.395
-0.0705 -1.797 -1.726 0.9335 0.8285 -1.762 -1.01 -1.067 -0.858 -0.8345 -0.911 -0.782 -0.1035 -0.514 0.389
-0.0715 -1.791 -1.72 0.9315 0.824 -1.755 -1.012 -1.067 -0.856 -0.833 -0.909 -0.7825 -0.1045 -0.5095 0.3855
-0.0735 -1.788 -1.715 0.931 0.821 -1.752 -1.011 -1.064 -0.8535 -0.8315 -0.9085 -0.7795 -0.1025 -0.503 0.3855
-0.0705 -1.784 -1.714 0.928 0.822 -1.75 -1.01 -1.063 -0.851 -0.8285 -0.9085 -0.778 -0.1045 -0.4975 0.383
-0.07 -1.777 -1.708 0.9235 0.819 -1.742 -1.01 -1.063 -0.851 -0.827 -0.907 -0.7775 -0.1045 -0.494 0.381
-0.072 -1.774 -1.702 0.9235 0.816 -1.739 -1.003 -1.062 -0.8515 -0.826 -0.9035 -0.7755 -0.105 -0.491 0.3785
-0.072 -1.776 -1.704 0.9245 0.8165 -1.74 -0.9995 -1.058 -0.848 -0.823 -0.8985 -0.7745 -0.108 -0.493 0.3745
-0.0765 -1.778 -1.701 0.927 0.8125 -1.739 -0.9985 -1.056 -0.8475 -0.824 -0.9 -0.7765 -0.1105 -0.4865 0.372
-0.0775 -1.777 -1.7 0.927 0.8115 -1.738 -0.9955 -1.055 -0.8475 -0.825 -0.903 -0.7765 -0.113 -0.4845 0.372
-0.0775 -1.778 -1.7 0.928 0.8115 -1.74 -0.997 -1.055 -0.849 -0.826 -0.9015 -0.7755 -0.112 -0.495 0.3735
-0.078 -1.782 -1.704 0.9305 0.813 -1.743 -0.9945 -1.052 -0.8505 -0.831 -0.9025 -0.776 -0.1115 -0.4955 0.375
-0.0745 -1.788 -1.713 0.9315 0.8195 -1.75 -0.9935 -1.05 -0.85 -0.832 -0.906 -0.7775 -0.1115 -0.501 0.3775
-0.075 -1.79 -1.716 0.933 0.8205 -1.753 -0.9925 -1.051 -0.85 -0.831 -0.909 -0.78 -0.11 -0.5065 0.378
-0.0785 -1.793 -1.714 0.936 0.818 -1.754 -0.993 -1.051 -0.8525 -0.831 -0.9115 -0.782 -0.11 -0.5045 0.3775
-0.0765 -1.8 -1.723 0.938 0.8235 -1.761 -0.9905 -1.05 -0.853 -0.8325 -0.9135 -0.783 -0.1105 -0.5095 0.3775
-0.073 -1.797 -1.724 0.935 0.826 -1.76 -0.9845 -1.045 -0.849 -0.831 -0.914 -0.784 -0.1105 -0.5095 0.3745
-0.075 -1.798 -1.722 0.9365 0.824 -1.76 -0.9865 -1.044 -0.851 -0.8305 -0.917 -0.7855 -0.1085 -0.514 0.372
-0.074 -1.8 -1.727 0.9375 0.827 -1.764 -0.99 -1.046 -0.853 -0.8355 -0.921 -0.7895 -0.1055 -0.514 0.3715
-0.0715 -1.8 -1.728 0.9355 0.8285 -1.764 -0.991 -1.046 -0.853 -0.838 -0.9235 -0.791 -0.105 -0.5115 0.372
-0.073 -1.801 -1.728 0.937 0.8275 -1.764 -0.993 -1.046 -0.8535 -0.84 -0.925 -0.79 -0.1025 -0.5125 0.373
-0.067 -1.797 -1.73 0.932 0.8315 -1.764 -0.998 -1.046 -0.8555 -0.841 -0.924 -0.79 -0.1 -0.5085 0.375
-0.0625 -1.788 -1.726 0.926 0.8315 -1.757 -1 -1.046 -0.854 -0.838 -0.9225 -0.7875 -0.0985 -0.5075 0.3775
-0.064 -1.786 -1.722 0.9255 0.829 -1.754 -1.002 -1.043 -0.85 -0.8345 -0.9195 -0.7865 -0.0955 -0.5075 0.376
-0.063 -1.79 -1.728 0.927 0.8325 -1.759 -1.004 -1.039 -0.8465 -0.831 -0.918 -0.7865 -0.094 -0.5065 0.3755
-0.059 -1.784 -1.725 0.922 0.833 -1.754 -1.002 -1.036 -0.8425 -0.825 -0.914 -0.783 -0.092 -0.5 0.372
-0.0565 -1.783 -1.726 0.92 0.835 -1.754 -1 -1.033 -0.837 -0.822 -0.9095 -0.781 -0.0895 -0.501 0.367
-0.0585 -1.792 -1.733 0.9255 0.8375 -1.762 -1.002 -1.032 -0.835 -0.8185 -0.9055 -0.7785 -0.087 -0.501 0.3685
-0.0595 -1.797 -1.738 0.9285 0.839 -1.767 -1.004 -1.036 -0.839 -0.8195 -0.9025 -0.7725 -0.082 -0.5065 0.378
-0.058 -1.802 -1.743 0.93 0.843 -1.772 -1.008 -1.04 -0.8415 -0.8215 -0.903 -0.7715 -0.08 -0.519 0.3845
-0.061 -1.806 -1.744 0.9335 0.842 -1.776 -1.019 -1.045 -0.8455 -0.821 -0.9055 -0.7735 -0.0805 -0.524 0.392
-0.0605 -1.81 -1.749 0.9355 0.8445 -1.78 -1.028 -1.049 -0.846 -0.821 -0.904 -0.771 -0.0795 -0.533 0.399
-0.0585 -1.812 -1.754 0.936 0.8475 -1.783 -1.036 -1.056 -0.8495 -0.823 -0.9 -0.767 -0.08 -0.535 0.3995
-0.061 -1.81 -1.748 0.936 0.844 -1.78 -1.047 -1.065 -0.855 -0.8245 -0.9015 -0.7685 -0.0795 -0.527 0.4025
-0.0595 -1.802 -1.742 0.9305 0.841 -1.772 -1.06 -1.071 -0.857 -0.8245 -0.901 -0.768 -0.08 -0.521 0.407
-0.0595 -1.806 -1.746 0.933 0.844 -1.776 -1.068 -1.081 -0.8645 -0.828 -0.9 -0.7685 -0.0825 -0.524 0.412
-0.0605 -1.81 -1.75 0.9355 0.8445 -1.78 -1.071 -1.085 -0.868 -0.8295 -0.902 -0.7715 -0.085 -0.523 0.413
-0.063 -1.809 -1.746 0.9365 0.842 -1.778 -1.077 -1.093 -0.873 -0.8345 -0.9065 -0.7765 -0.0885 -0.514 0.415
-0.065 -1.809 -1.744 0.9375 0.8395 -1.776 -1.078 -1.099 -0.879 -0.8395 -0.9085 -0.782 -0.091 -0.517 0.4205
-0.0635 -1.802 -1.739 0.933 0.838 -1.771 -1.083 -1.102 -0.881 -0.8405 -0.9095 -0.783 -0.093 -0.5165 0.423
-0.0615 -1.803 -1.741 0.9325 0.84 -1.772 -1.085 -1.105 -0.886 -0.846 -0.9135 -0.786 -0.094 -0.509 0.425
-0.0555 -1.799 -1.743 0.9275 0.844 -1.771 -1.089 -1.107 -0.8865 -0.846 -0.9135 -0.784 -0.089 -0.507 0.4275
-0.0535 -1.794 -1.74 0.924 0.844 -1.768 -1.097 -1.11 -0.889 -0.8475 -0.916 -0.785 -0.089 -0.511 0.4315
-0.052 -1.794 -1.742 0.9235 0.8455 -1.768 -1.101 -1.115 -0.894 -0.852 -0.9185 -0.7855 -0.087 -0.5125 0.437
-0.043 -1.794 -1.75 0.918 0.854 -1.772 -1.105 -1.115 -0.8935 -0.8495 -0.917 -0.7805 -0.0805 -0.502 0.4445
-0.0485 -1.8 -1.751 0.924 0.8515 -1.776 -1.108 -1.119 -0.8975 -0.852 -0.9195 -0.783 -0.0805 -0.5065 0.4515
-0.053 -1.808 -1.755 0.931 0.851 -1.782 -1.111 -1.122 -0.903 -0.8565 -0.922 -0.7845 -0.0765 -0.5175 0.4575
-0.05 -1.815 -1.765 0.933 0.8575 -1.79 -1.106 -1.12 -0.9045 -0.8585 -0.923 -0.7845 -0.076 -0.524 0.459
-0.0565 -1.824 -1.768 0.9405 0.856 -1.796 -1.103 -1.123 -0.907 -0.861 -0.925 -0.7845 -0.079 -0.532 0.463
-0.0555 -1.827 -1.772 0.9415 0.8585 -1.799 -1.106 -1.123 -0.907 -0.8595 -0.925 -0.7825 -0.0775 -0.535 0.4635
-0.0505 -1.825 -1.775 0.938 0.8625 -1.8 -1.102 -1.117 -0.905 -0.8565 -0.924 -0.78 -0.0745 -0.5365 0.463
-0.055 -1.829 -1.774 0.9425 0.86 -1.802 -1.1 -1.115 -0.905 -0.8595 -0.9225 -0.7775 -0.0725 -0.536 0.466
-0.06 -1.835 -1.775 0.9475 0.8575 -1.805 -1.099 -1.118 -0.906 -0.8625 -0.924 -0.778 -0.0745 -0.534 0.4655
-0.049 -1.826 -1.777 0.938 0.864 -1.802 -1.103 -1.115 -0.9025 -0.8585 -0.921 -0.7735 -0.0695 -0.541 0.471
-0.041 -1.821 -1.78 0.931 0.8695 -1.8 -1.103 -1.111 -0.898 -0.853 -0.9185 -0.7715 -0.064 -0.5435 0.4675
-0.042 -1.83 -1.788 0.936 0.873 -1.808 -1.097 -1.105 -0.895 -0.851 -0.918 -0.773 -0.064 -0.538 0.465
-0.035 -1.833 -1.798 0.9345 0.882 -1.815 -1.101 -1.104 -0.8945 -0.851 -0.9165 -0.7725 -0.06 -0.5455 0.472
-0.0365 -1.837 -1.801 0.937 0.8825 -1.819 -1.099 -1.103 -0.8965 -0.85 -0.9185 -0.777 -0.06 -0.555 0.4715
-0.036 -1.839 -1.802 0.9375 0.883 -1.821 -1.095 -1.099 -0.895 -0.849 -0.9165 -0.779 -0.059 -0.554 0.467
-0.036 -1.841 -1.805 0.939 0.8845 -1.823 -1.096 -1.098 -0.8945 -0.8485 -0.918 -0.7835 -0.058 -0.5555 0.4615
-0.038 -1.847 -1.808 0.9425 0.8855 -1.827 -1.094 -1.098 -0.8975 -0.85 -0.9215 -0.7885 -0.0585 -0.561 0.458
-0.0325 -1.844 -1.811 0.9385 0.8895 -1.827 -1.093 -1.097 -0.898 -0.8515 -0.9225 -0.789 -0.0545 -0.5665 0.4565
-0.034 -1.842 -1.808 0.938 0.887 -1.825 -1.092 -1.094 -0.8975 -0.854 -0.9255 -0.7925 -0.057 -0.5675 0.452
-0.0365 -1.841 -1.805 0.939 0.8845 -1.823 -1.093 -1.095 -0.9 -0.856 -0.9255 -0.7935 -0.058 -0.563 0.4475
-0.0365 -1.851 -1.814 0.944 0.889 -1.833 -1.095 -1.095 -0.9005 -0.8585 -0.9255 -0.7915 -0.0535 -0.5715 0.451
-0.0355 -1.855 -1.82 0.9455 0.8925 -1.837 -1.095 -1.097 -0.902 -0.8625 -0.9275 -0.7935 -0.0565 -0.5785 0.4525
-0.0305 -1.853 -1.822 0.942 0.896 -1.837 -1.1 -1.1 -0.904 -0.8635 -0.926 -0.7915 -0.054 -0.5775 0.4515
-0.027 -1.856 -1.829 0.942 0.9015 -1.843 -1.103 -1.098 -0.901 -0.8585 -0.92 -0.784 -0.0475 -0.576 0.4545
-0.023 -1.858 -1.835 0.941 0.9065 -1.847 -1.101 -1.092 -0.893 -0.852 -0.913 -0.7775 -0.043 -0.5775 0.454
-0.024 -1.861 -1.838 0.9435 0.907 -1.85 -1.1 -1.089 -0.8905 -0.851 -0.9125 -0.775 -0.0405 -0.5775 0.454
-0.0255 -1.864 -1.839 0.945 0.9065 -1.851 -1.099 -1.091 -0.893 -0.855 -0.913 -0.7725 -0.0395 -0.5835 0.4565
-0.0205 -1.863 -1.843 0.9425 0.9115 -1.853 -1.095 -1.087 -0.888 -0.852 -0.9095 -0.7685 -0.0375 -0.588 0.4555
-0.0165 -1.863 -1.847 0.94 0.9155 -1.855 -1.094 -1.087 -0.889 -0.8485 -0.9075 -0.7655 -0.0345 -0.584 0.455
-0.022 -1.873 -1.851 0.9475 0.9145 -1.861 -1.096 -1.093 -0.896 -0.853 -0.9105 -0.7685 -0.0365 -0.5935 0.462
-0.031 -1.881 -1.85 0.9565 0.9095 -1.865 -1.094 -1.097 -0.8995 -0.857 -0.9165 -0.7745 -0.0425 -0.585 0.463
-0.026 -1.885 -1.858 0.9555 0.9165 -1.871 -1.089 -1.093 -0.8975 -0.8555 -0.9165 -0.7755 -0.045 -0.5935 0.459
-0.022 -1.889 -1.867 0.956 0.923 -1.878 -1.091 -1.092 -0.8985 -0.856 -0.917 -0.778 -0.045 -0.6075 0.4615
-0.0245 -1.886 -1.861 0.9555 0.9185 -1.873 -1.093 -1.097 -0.9045 -0.859 -0.9195 -0.7795 -0.045 -0.5975 0.464
-0.026 -1.887 -1.861 0.9565 0.918 -1.874 -1.091 -1.097 -0.9045 -0.86 -0.921 -0.783 -0.048 -0.602 0.462
-0.026 -1.886 -1.86 0.9565 0.917 -1.873 -1.088 -1.093 -0.902 -0.859 -0.9205 -0.7855 -0.049 -0.5955 0.454
-0.036 -1.885 -1.849 0.9605 0.907 -1.867 -1.083 -1.09 -0.8985 -0.856 -0.92 -0.786 -0.0515 -0.5905 0.444
-0.0535 -1.889 -1.835 0.971 0.8905 -1.861 -1.081 -1.093 -0.9 -0.8585 -0.925 -0.7885 -0.0565 -0.5895 0.4415
-0.066 -1.885 -1.819 0.9755 0.877 -1.851 -1.078 -1.099 -0.903 -0.864 -0.9305 -0.793 -0.0635 -0.5805 0.436
-0.0765 -1.88 -1.804 0.9785 0.864 -1.841 -1.069 -1.095 -0.898 -0.8615 -0.933 -0.797 -0.0715 -0.571 0.4255
-0.0805 -1.879 -1.798 0.98 0.8595 -1.839 -1.062 -1.087 -0.8895 -0.855 -0.9285 -0.796 -0.0705 -0.569 0.423
-0.087 -1.88 -1.792 0.9835 0.853 -1.836 -1.057 -1.087 -0.889 -0.8535 -0.927 -0.7995 -0.0735 -0.5745 0.42
-0.091 -1.881 -1.79 0.9865 0.8495 -1.835 -1.057 -1.087 -0.889 -0.852 -0.931 -0.8035 -0.077 -0.5785 0.418
-0.086 -1.882 -1.796 0.984 0.855 -1.839 -1.054 -1.083 -0.8875 -0.849 -0.9315 -0.8045 -0.0785 -0.5855 0.4195
-0.099 -1.894 -1.795 0.9965 0.8485 -1.845 -1.051 -1.087 -0.8935 -0.857 -0.9395 -0.812 -0.089 -0.5885 0.42
-0.107 -1.905 -1.798 1.006 0.8455 -1.851 -1.05 -1.093 -0.8985 -0.8615 -0.9445 -0.816 -0.0935 -0.594 0.4245
-0.101 -1.909 -1.808 1.005 0.8535 -1.858 -1.052 -1.099 -0.904 -0.867 -0.9475 -0.8185 -0.0955 -0.6065 0.431
-0.107 -1.917 -1.81 1.012 0.852 -1.863 -1.054 -1.107 -0.9145 -0.8765 -0.9545 -0.8255 -0.1025 -0.6125 0.4335
-0.1145 -1.925 -1.81 1.02 0.848 -1.867 -1.048 -1.106 -0.915 -0.8765 -0.9575 -0.8295 -0.11 -0.6155 0.434
-0.1155 -1.925 -1.81 1.02 0.8475 -1.867 -1.046 -1.106 -0.9165 -0.8815 -0.9605 -0.831 -0.114 -0.6165 0.4335
-0.119 -1.923 -1.804 1.021 0.8425 -1.863 -1.048 -1.108 -0.9195 -0.8875 -0.963 -0.8335 -0.1135 -0.615 0.4315
-0.1195 -1.928 -1.808 1.024 0.845 -1.869 -1.045 -1.105 -0.919 -0.8895 -0.9645 -0.833 -0.116 -0.62 0.4325
-0.1155 -1.928 -1.812 1.022 0.849 -1.871 -1.046 -1.105 -0.9205 -0.892 -0.965 -0.832 -0.1155 -0.62 0.4325
-0.115 -1.925 -1.811 1.02 0.848 -1.868 -1.046 -1.105 -0.9215 -0.895 -0.9675 -0.8325 -0.1135 -0.6135 0.432
-0.1145 -1.923 -1.809 1.02 0.8475 -1.867 -1.048 -1.107 -0.9245 -0.898 -0.971 -0.8325 -0.1115 -0.6195 0.4335
-0.1175 -1.923 -1.806 1.021 0.8445 -1.865 -1.054 -1.113 -0.9295 -0.902 -0.9735 -0.833 -0.1075 -0.622 0.4375
-0.1175 -1.923 -1.805 1.02 0.844 -1.863 -1.056 -1.115 -0.9305 -0.905 -0.9735 -0.831 -0.104 -0.614 0.4365
-0.1105 -1.915 -1.804 1.013 0.847 -1.86 -1.056 -1.111 -0.929 -0.9025 -0.973 -0.829 -0.1015 -0.6105 0.4355
-0.113 -1.917 -1.804 1.016 0.846 -1.861 -1.057 -1.113 -0.9305 -0.9035 -0.9765 -0.8315 -0.1 -0.6085 0.438
-0.1175 -1.921 -1.804 1.02 0.8435 -1.863 -1.056 -1.115 -0.9315 -0.905 -0.979 -0.832 -0.0985 -0.61 0.4385
-0.1185 -1.927 -1.809 1.023 0.8455 -1.868 -1.056 -1.115 -0.9325 -0.906 -0.9785 -0.83 -0.097 -0.615 0.442
-0.1245 -1.929 -1.805 1.027 0.8405 -1.867 -1.054 -1.115 -0.9335 -0.907 -0.9785 -0.831 -0.097 -0.62 0.443
-0.118 -1.925 -1.806 1.022 0.845 -1.865 -1.053 -1.112 -0.9285 -0.9015 -0.9745 -0.8295 -0.0945 -0.633 0.4435
-0.1215 -1.933 -1.812 1.028 0.845 -1.873 -1.052 -1.111 -0.9225 -0.897 -0.971 -0.827 -0.094 -0.6255 0.4435
-0.136 -1.941 -1.805 1.038 0.8345 -1.873 -1.051 -1.111 -0.922 -0.896 -0.9695 -0.828 -0.0955 -0.616 0.443
-0.132 -1.939 -1.806 1.036 0.8375 -1.873 -1.049 -1.109 -0.921 -0.894 -0.968 -0.8265 -0.0945 -0.621 0.445
-0.1225 -1.934 -1.812 1.028 0.8445 -1.873 -1.048 -1.106 -0.92 -0.8925 -0.966 -0.8255 -0.094 -0.619 0.443
-0.118 -1.934 -1.816 1.026 0.8495 -1.875 -1.048 -1.107 -0.921 -0.892 -0.9655 -0.826 -0.0935 -0.6195 0.4425
-0.1245 -1.94 -1.815 1.032 0.846 -1.878 -1.046 -1.105 -0.9195 -0.8885 -0.967 -0.825 -0.095 -0.6215 0.4405
-0.1285 -1.944 -1.816 1.036 0.844 -1.88 -1.044 -1.106 -0.918 -0.8865 -0.968 -0.8285 -0.097 -0.6215 0.4395
-0.1335 -1.942 -1.808 1.038 0.838 -1.875 -1.044 -1.107 -0.9195 -0.8875 -0.972 -0.836 -0.1005 -0.617 0.438
-0.1315 -1.941 -1.81 1.036 0.8395 -1.875 -1.045 -1.105 -0.919 -0.8865 -0.973 -0.8385 -0.103 -0.6255 0.436
-0.1305 -1.942 -1.812 1.037 0.841 -1.877 -1.04 -1.104 -0.9165 -0.8885 -0.9725 -0.843 -0.1085 -0.627 0.4315
-0.1295 -1.938 -1.808 1.034 0.8395 -1.873 -1.04 -1.104 -0.9175 -0.888 -0.9755 -0.845 -0.11 -0.6175 0.4295
-0.1135 -1.927 -1.813 1.02 0.85 -1.87 -1.044 -1.103 -0.9175 -0.8865 -0.9735 -0.8445 -0.1085 -0.6165 0.4325
-0.116 -1.929 -1.812 1.022 0.8485 -1.871 -1.044 -1.102 -0.916 -0.8855 -0.9745 -0.8485 -0.1105 -0.621 0.434
-0.1215 -1.933 -1.812 1.028 0.8455 -1.873 -1.048 -1.107 -0.92 -0.886 -0.9795 -0.851 -0.1105 -0.623 0.4325
-0.1255 -1.934 -1.808 1.03 0.8415 -1.871 -1.048 -1.109 -0.92 -0.887 -0.981 -0.8535 -0.112 -0.618 0.432
-0.1305 -1.933 -1.802 1.032 0.836 -1.867 -1.046 -1.109 -0.92 -0.887 -0.982 -0.855 -0.1145 -0.6195 0.4305
-0.131 -1.935 -1.804 1.034 0.8365 -1.869 -1.046 -1.113 -0.928 -0.894 -0.988 -0.858 -0.116 -0.6245 0.433
-0.135 -1.95 -1.815 1.042 0.84 -1.882 -1.047 -1.115 -0.9375 -0.9035 -0.995 -0.861 -0.1175 -0.632 0.4385
-0.135 -1.948 -1.813 1.042 0.839 -1.881 -1.04 -1.117 -0.943 -0.912 -1 -0.8615 -0.12 -0.6305 0.438
-0.139 -1.948 -1.809 1.044 0.835 -1.878 -1.034 -1.125 -0.949 -0.9215 -1.006 -0.865 -0.125 -0.6365 0.4415
-0.144 -1.954 -1.81 1.049 0.833 -1.882 -1.034 -1.135 -0.9575 -0.9295 -1.009 -0.866 -0.1295 -0.6465 0.443
-0.149 -1.95 -1.802 1.05 0.8265 -1.875 -1.03 -1.147 -0.9645 -0.9335 -1.008 -0.8605 -0.1325 -0.641 0.442
-0.155 -1.95 -1.794 1.052 0.82 -1.872 -1.026 -1.162 -0.9725 -0.935 -1.006 -0.8575 -0.136 -0.6435 0.443
-0.151 -1.942 -1.79 1.046 0.8195 -1.865 -1.035 -1.185 -0.9875 -0.938 -0.9975 -0.847 -0.1315 -0.639 0.449
-0.146 -1.931 -1.786 1.039 0.82 -1.859 -1.052 -1.216 -0.997 -0.93 -0.984 -0.829 -0.118 -0.624 0.4585
-0.1495 -1.915 -1.766 1.032 0.809 -1.841 -1.069 -1.248 -1.004 -0.916 -0.9625 -0.8065 -0.1035 -0.611 0.4645
-0.141 -1.894 -1.753 1.018 0.806 -1.823 -1.097 -1.292 -1.027 -0.909 -0.943 -0.7815 -0.086 -0.5975 0.4795
-0.131 -1.873 -1.742 1.002 0.8055 -1.807 -1.136 -1.347 -1.054 -0.9025 -0.923 -0.7585 -0.065 -0.5805 0.5015
-0.119 -1.853 -1.734 0.986 0.808 -1.793 -1.177 -1.409 -1.087 -0.8965 -0.8965 -0.73 -0.041 -0.5655 0.5275
-0.098 -1.832 -1.734 0.965 0.8185 -1.783 -1.212 -1.458 -1.113 -0.8885 -0.869 -0.698 -0.014 -0.549 0.5465
-0.0845 -1.797 -1.712 0.941 0.814 -1.754 -1.245 -1.504 -1.131 -0.8735 -0.836 -0.663 0.015 -0.5225 0.557
-0.0655 -1.75 -1.685 0.908 0.81 -1.718 -1.28 -1.544 -1.138 -0.844 -0.79 -0.6185 0.049 -0.4895 0.559
-0.046 -1.7 -1.655 0.8735 0.8045 -1.677 -1.312 -1.579 -1.141 -0.815 -0.7425 -0.5695 0.0845 -0.441 0.5595
-0.031 -1.663 -1.632 0.8475 0.801 -1.648 -1.347 -1.625 -1.162 -0.8035 -0.7085 -0.531 0.1175 -0.414 0.575
-0.0105 -1.633 -1.623 0.822 0.8065 -1.628 -1.376 -1.653 -1.173 -0.7915 -0.679 -0.4975 0.1485 -0.3955 0.582
0.014 -1.589 -1.603 0.788 0.8085 -1.597 -1.405 -1.679 -1.177 -0.7745 -0.6445 -0.4585 0.1825 -0.36 0.5835
0.0355 -1.558 -1.593 0.7615 0.8145 -1.575 -1.437 -1.714 -1.192 -0.759 -0.6095 -0.4155 0.22 -0.336 0.593
0.053 -1.548 -1.601 0.7475 0.827 -1.575 -1.458 -1.735 -1.204 -0.755 -0.5885 -0.3865 0.247 -0.324 0.607
0.075 -1.533 -1.608 0.7295 0.8415 -1.571 -1.47 -1.75 -1.216 -0.7565 -0.5705 -0.364 0.271 -0.3185 0.619
0.1035 -1.506 -1.609 0.701 0.8565 -1.557 -1.498 -1.778 -1.226 -0.7405 -0.533 -0.323 0.3125 -0.3005 0.6285
0.129 -1.465 -1.594 0.6685 0.8615 -1.53 -1.52 -1.812 -1.233 -0.7155 -0.4845 -0.2695 0.357 -0.271 0.63
0.152 -1.421 -1.573 0.635 0.863 -1.498 -1.554 -1.869 -1.253 -0.6955 -0.4345 -0.212 0.4005 -0.2375 0.642
0.179 -1.375 -1.554 0.598 0.8665 -1.464 -1.597 -1.943 -1.285 -0.675 -0.3835 -0.1535 0.446 -0.19 0.6595
0.21 -1.294 -1.504 0.5425 0.8575 -1.399 -1.622 -1.996 -1.276 -0.616 -0.3025 -0.072 0.5045 -0.124 0.6445
0.245 -1.213 -1.458 0.484 0.852 -1.335 -1.665 -2.056 -1.27 -0.558 -0.2165 0.0145 0.5705 -0.0545 0.6405
0.2915 -1.141 -1.433 0.425 0.862 -1.286 -1.702 -2.116 -1.284 -0.5235 -0.15 0.0865 0.626 0.0015 0.6445
0.3355 -1.067 -1.403 0.366 0.8695 -1.235 -1.723 -2.15 -1.28 -0.488 -0.091 0.1475 0.667 0.047 0.634
0.3625 -1.005 -1.368 0.3215 0.8655 -1.187 -1.749 -2.182 -1.278 -0.462 -0.042 0.2 0.702 0.1045 0.6255
0.3985 -0.941 -1.339 0.2715 0.8695 -1.14 -1.794 -2.246 -1.295 -0.433 0.0125 0.2615 0.748 0.1555 0.6365
0.429 -0.8745 -1.304 0.223 0.8665 -1.089 -1.851 -2.332 -1.327 -0.414 0.0595 0.315 0.783 0.2085 0.655
0.4345 -0.8565 -1.291 0.2115 0.863 -1.074 -1.857 -2.362 -1.352 -0.4375 0.0485 0.315 0.772 0.228 0.6605
0.421 -0.9095 -1.33 0.2445 0.8755 -1.12 -1.817 -2.362 -1.386 -0.5125 -0.0275 0.25 0.712 0.191 0.6725
0.401 -0.955 -1.355 0.2775 0.8785 -1.155 -1.778 -2.369 -1.419 -0.5765 -0.0905 0.1955 0.66 0.1635 0.684
0.361 -1.058 -1.419 0.3485 0.89 -1.238 -1.736 -2.341 -1.446 -0.668 -0.1955 0.1005 0.5865 0.083 0.7175
0.304 -1.165 -1.468 0.4305 0.8865 -1.317 -1.688 -2.317 -1.466 -0.7505 -0.303 -0.001 0.5025 0.013 0.741
0.2595 -1.196 -1.455 0.4685 0.8575 -1.325 -1.637 -2.299 -1.452 -0.7725 -0.3515 -0.0505 0.448 -0.0095 0.731
0.207 -1.256 -1.464 0.525 0.8355 -1.36 -1.603 -2.272 -1.452 -0.818 -0.421 -0.118 0.3855 -0.054 0.7395
0.1525 -1.305 -1.458 0.5765 0.805 -1.381 -1.595 -2.265 -1.464 -0.8595 -0.484 -0.1765 0.326 -0.0705 0.7575
0.1085 -1.321 -1.43 0.607 0.7695 -1.375 -1.596 -2.24 -1.455 -0.876 -0.5195 -0.215 0.28 -0.059 0.7665
0.074 -1.336 -1.411 0.631 0.7425 -1.373 -1.597 -2.216 -1.455 -0.892 -0.5525 -0.246 0.241 -0.0595 0.775
0.0395 -1.363 -1.402 0.662 0.721 -1.383 -1.585 -2.199 -1.466 -0.9185 -0.5995 -0.2895 0.191 -0.083 0.787
0.003 -1.405 -1.407 0.701 0.7055 -1.406 -1.575 -2.169 -1.484 -0.9525 -0.647 -0.335 0.147 -0.111 0.8045
-0.0415 -1.436 -1.394 0.739 0.6765 -1.415 -1.552 -2.122 -1.483 -0.9755 -0.6895 -0.3785 0.1005 -0.1225 0.798
-0.092 -1.482 -1.391 0.7875 0.6495 -1.437 -1.503 -2.08 -1.486 -1.009 -0.745 -0.435 0.0455 -0.15 0.7895
-0.147 -1.565 -1.417 0.856 0.636 -1.492 -1.466 -2.071 -1.536 -1.085 -0.8295 -0.509 -0.0205 -0.2155 0.816
-0.185 -1.641 -1.457 0.9135 0.636 -1.549 -1.451 -2.062 -1.578 -1.15 -0.9085 -0.583 -0.0825 -0.283 0.8435
-0.2085 -1.71 -1.502 0.96 0.647 -1.607 -1.446 -2.049 -1.613 -1.206 -0.9785 -0.6535 -0.135 -0.344 0.872
-0.238 -1.792 -1.554 1.016 0.658 -1.673 -1.439 -2.021 -1.643 -1.272 -1.062 -0.7345 -0.194 -0.4135 0.9
-0.258 -1.874 -1.616 1.067 0.679 -1.745 -1.425 -1.976 -1.661 -1.326 -1.133 -0.805 -0.24 -0.48 0.919
-0.2685 -1.942 -1.673 1.105 0.7025 -1.808 -1.403 -1.929 -1.668 -1.371 -1.188 -0.8635 -0.279 -0.5375 0.927
-0.2655 -1.988 -1.723 1.127 0.729 -1.855 -1.406 -1.877 -1.656 -1.39 -1.226 -0.906 -0.298 -0.595 0.929
-0.2675 -2.022 -1.756 1.145 0.744 -1.889 -1.419 -1.832 -1.643 -1.403 -1.254 -0.9405 -0.3135 -0.63 0.927
-0.2745 -2.042 -1.768 1.159 0.747 -1.906 -1.403 -1.784 -1.613 -1.401 -1.272 -0.9675 -0.333 -0.645 0.9035
-0.279 -2.053 -1.774 1.167 0.748 -1.914 -1.382 -1.726 -1.57 -1.381 -1.276 -0.983 -0.3405 -0.656 0.868
-0.2805 -2.058 -1.778 1.17 0.749 -1.919 -1.363 -1.675 -1.533 -1.366 -1.278 -0.996 -0.3475 -0.669 0.8385
-0.271 -2.059 -1.789 1.166 0.759 -1.925 -1.341 -1.615 -1.49 -1.343 -1.273 -1.004 -0.3445 -0.6785 0.8095
-0.2615 -2.066 -1.804 1.164 0.7715 -1.935 -1.308 -1.54 -1.429 -1.308 -1.262 -1.009 -0.336 -0.683 0.7705
-0.2545 -2.066 -1.812 1.161 0.779 -1.94 -1.273 -1.47 -1.367 -1.27 -1.244 -1.004 -0.327 -0.6945 0.733
-0.24 -2.05 -1.81 1.145 0.7855 -1.93 -1.242 -1.399 -1.3 -1.224 -1.222 -0.9965 -0.313 -0.69 0.688
-0.2265 -2.039 -1.813 1.134 0.794 -1.927 -1.201 -1.317 -1.225 -1.172 -1.198 -0.99 -0.2995 -0.6895 0.636
-0.2155 -2.037 -1.821 1.127 0.803 -1.929 -1.165 -1.236 -1.156 -1.126 -1.169 -0.98 -0.282 -0.684 0.594
-0.1935 -2.018 -1.825 1.106 0.816 -1.921 -1.115 -1.151 -1.08 -1.072 -1.135 -0.963 -0.2605 -0.6715 0.542
-0.167 -1.996 -1.829 1.082 0.8315 -1.913 -1.066 -1.069 -1.002 -1.014 -1.1 -0.942 -0.235 -0.6685 0.491
-0.154 -1.988 -1.834 1.071 0.8405 -1.911 -1.038 -1.007 -0.9395 -0.9655 -1.069 -0.925 -0.212 -0.6635 0.457
-0.147 -1.986 -1.839 1.067 0.8465 -1.912 -1.016 -0.9635 -0.892 -0.9285 -1.044 -0.914 -0.1925 -0.668 0.428
-0.134 -1.981 -1.847 1.058 0.857 -1.915 -1.006 -0.9405 -0.861 -0.9015 -1.024 -0.8995 -0.176 -0.6695 0.4075
-0.1235 -1.975 -1.851 1.049 0.8645 -1.913 -1.005 -0.9325 -0.842 -0.8855 -1.01 -0.887 -0.163 -0.6635 0.4005
-0.1195 -1.97 -1.851 1.045 0.866 -1.911 -1.004 -0.933 -0.834 -0.8805 -1.004 -0.884 -0.156 -0.66 0.396
-0.118 -1.971 -1.853 1.044 0.8675 -1.912 -0.9975 -0.928 -0.823 -0.8735 -0.999 -0.8805 -0.152 -0.6625 0.3895
-0.1185 -1.971 -1.853 1.044 0.8675 -1.911 -0.995 -0.923 -0.812 -0.8675 -0.996 -0.8795 -0.1475 -0.663 0.3865
-0.1125 -1.97 -1.857 1.042 0.8725 -1.914 -0.99 -0.9145 -0.8035 -0.8625 -0.992 -0.88 -0.144 -0.6635 0.38
-0.0975 -1.968 -1.871 1.034 0.887 -1.919 -0.9815 -0.901 -0.793 -0.8585 -0.989 -0.878 -0.135 -0.6665 0.3745
-0.092 -1.969 -1.877 1.03 0.893 -1.923 -0.9775 -0.893 -0.7845 -0.857 -0.991 -0.879 -0.1285 -0.6655 0.3725
-0.103 -1.978 -1.875 1.04 0.8865 -1.927 -0.971 -0.888 -0.7795 -0.8535 -0.9915 -0.881 -0.127 -0.6745 0.3705
-0.097 -1.98 -1.883 1.038 0.893 -1.931 -0.971 -0.883 -0.778 -0.8525 -0.992 -0.8785 -0.121 -0.6845 0.3725
-0.089 -1.977 -1.887 1.034 0.8995 -1.932 -0.97 -0.8785 -0.7775 -0.854 -0.9925 -0.879 -0.118 -0.682 0.3695
-0.094 -1.981 -1.887 1.038 0.8965 -1.933 -0.9635 -0.869 -0.7705 -0.8505 -0.9925 -0.879 -0.1145 -0.6855 0.366
-0.095 -1.991 -1.897 1.044 0.901 -1.944 -0.961 -0.8635 -0.766 -0.8465 -0.99 -0.8765 -0.108 -0.6925 0.3685
-0.097 -1.992 -1.896 1.045 0.8995 -1.944 -0.956 -0.86 -0.7615 -0.8415 -0.987 -0.875 -0.103 -0.6895 0.363
-0.093 -1.992 -1.899 1.042 0.9035 -1.946 -0.9545 -0.8525 -0.754 -0.834 -0.984 -0.8705 -0.095 -0.691 0.36
-0.09 -1.998 -1.907 1.044 0.909 -1.952 -0.955 -0.8485 -0.7525 -0.8305 -0.9815 -0.87 -0.0925 -0.7015 0.363
-0.092 -1.998 -1.907 1.046 0.9075 -1.952 -0.949 -0.8445 -0.7495 -0.829 -0.9805 -0.8665 -0.093 -0.7025 0.3615
-0.092 -2.002 -1.909 1.048 0.909 -1.956 -0.9475 -0.8425 -0.747 -0.8245 -0.975 -0.864 -0.0905 -0.7065 0.3595
-0.0875 -2 -1.912 1.044 0.9125 -1.956 -0.946 -0.838 -0.743 -0.8155 -0.97 -0.8625 -0.088 -0.709 0.3575
-0.087 -1.996 -1.909 1.042 0.911 -1.952 -0.942 -0.833 -0.737 -0.8085 -0.9645 -0.8605 -0.0885 -0.7055 0.3535
-0.089 -1.998 -1.91 1.044 0.911 -1.954 -0.941 -0.828 -0.733 -0.8045 -0.959 -0.8595 -0.0875 -0.7085 0.351
-0.0895 -1.998 -1.909 1.044 0.91 -1.954 -0.939 -0.8275 -0.73 -0.8025 -0.9575 -0.8595 -0.086 -0.7075 0.352
-0.088 -1.992 -1.903 1.04 0.908 -1.948 -0.94 -0.827 -0.7295 -0.804 -0.958 -0.8625 -0.0895 -0.704 0.352
-0.085 -1.994 -1.909 1.04 0.9125 -1.952 -0.942 -0.826 -0.729 -0.8045 -0.9585 -0.8625 -0.0915 -0.705 0.351
-0.0865 -1.996 -1.909 1.041 0.9115 -1.952 -0.946 -0.8295 -0.73 -0.8065 -0.961 -0.867 -0.092 -0.707 0.3495
-0.0905 -1.992 -1.902 1.042 0.906 -1.948 -0.9475 -0.8275 -0.729 -0.81 -0.964 -0.87 -0.095 -0.702 0.348
-0.0885 -1.991 -1.903 1.04 0.9075 -1.947 -0.947 -0.828 -0.728 -0.811 -0.967 -0.8735 -0.096 -0.704 0.347
-0.0845 -1.988 -1.903 1.036 0.9095 -1.946 -0.9505 -0.829 -0.731 -0.8135 -0.9715 -0.8795 -0.0985 -0.708 0.3485
-0.0885 -1.988 -1.899 1.038 0.9055 -1.944 -0.9505 -0.83 -0.7325 -0.816 -0.975 -0.881 -0.1035 -0.704 0.3465
-0.0885 -1.988 -1.899 1.038 0.9055 -1.944 -0.9515 -0.8335 -0.735 -0.8225 -0.9785 -0.884 -0.1045 -0.697 0.3445
-0.085 -1.986 -1.901 1.036 0.908 -1.943 -0.956 -0.832 -0.7375 -0.828 -0.9825 -0.886 -0.106 -0.698 0.348
-0.0855 -1.984 -1.899 1.035 0.907 -1.942 -0.9555 -0.8285 -0.735 -0.827 -0.984 -0.8875 -0.1075 -0.6995 0.347
-0.0805 -1.984 -1.904 1.032 0.912 -1.944 -0.9545 -0.825 -0.733 -0.826 -0.9855 -0.888 -0.1085 -0.7015 0.3465
-0.082 -1.98 -1.898 1.032 0.9085 -1.94 -0.9555 -0.8275 -0.7345 -0.8275 -0.9885 -0.8905 -0.1085 -0.7045 0.3495
-0.089 -1.982 -1.893 1.036 0.9025 -1.938 -0.952 -0.829 -0.7345 -0.8285 -0.9905 -0.8925 -0.1105 -0.6985 0.346
-0.081 -1.982 -1.901 1.032 0.9105 -1.942 -0.9525 -0.826 -0.731 -0.8255 -0.988 -0.8875 -0.107 -0.698 0.3455
-0.077 -1.984 -1.907 1.03 0.915 -1.946 -0.9525 -0.8265 -0.7275 -0.822 -0.985 -0.884 -0.1025 -0.6985 0.3465
-0.0835 -1.992 -1.909 1.038 0.9125 -1.95 -0.95 -0.825 -0.7245 -0.82 -0.9845 -0.883 -0.1035 -0.703 0.3465
-0.089 -2 -1.911 1.044 0.911 -1.956 -0.953 -0.823 -0.7225 -0.818 -0.983 -0.883 -0.0995 -0.709 0.348
-0.0855 -1.999 -1.913 1.043 0.914 -1.956 -0.9485 -0.817 -0.717 -0.812 -0.9795 -0.879 -0.0965 -0.718 0.3455
-0.087 -2.002 -1.915 1.045 0.914 -1.959 -0.9455 -0.8155 -0.7135 -0.81 -0.977 -0.876 -0.095 -0.718 0.3435
-0.091 -2.008 -1.917 1.05 0.9135 -1.963 -0.9435 -0.815 -0.7145 -0.8115 -0.9765 -0.8745 -0.0945 -0.7135 0.344
-0.08 -2.005 -1.925 1.043 0.9225 -1.965 -0.9415 -0.8085 -0.7135 -0.8105 -0.975 -0.874 -0.0915 -0.7205 0.346
-0.0805 -2.01 -1.929 1.046 0.925 -1.97 -0.9455 -0.811 -0.717 -0.812 -0.9755 -0.8735 -0.089 -0.7215 0.348
-0.082 -2.007 -1.925 1.045 0.922 -1.966 -0.945 -0.812 -0.7185 -0.8145 -0.9775 -0.8735 -0.09 -0.717 0.348
-0.0775 -1.998 -1.921 1.038 0.9225 -1.96 -0.944 -0.8085 -0.7185 -0.816 -0.9775 -0.8735 -0.089 -0.7185 0.3455
-0.081 -1.999 -1.919 1.04 0.919 -1.959 -0.943 -0.8115 -0.722 -0.819 -0.978 -0.874 -0.089 -0.729 0.3445
-0.088 -2.001 -1.913 1.045 0.913 -1.957 -0.9425 -0.8125 -0.7255 -0.8225 -0.9815 -0.8785 -0.092 -0.723 0.3445
-0.0875 -2 -1.912 1.044 0.9125 -1.956 -0.9445 -0.8145 -0.7295 -0.825 -0.9845 -0.8795 -0.091 -0.712 0.343
-0.084 -1.996 -1.912 1.04 0.9145 -1.954 -0.943 -0.814 -0.7275 -0.827 -0.9875 -0.88 -0.0895 -0.709 0.344
-0.086 -1.994 -1.909 1.04 0.9115 -1.952 -0.945 -0.8155 -0.728 -0.829 -0.99 -0.885 -0.094 -0.7105 0.343
-0.087 -1.995 -1.908 1.042 0.911 -1.952 -0.95 -0.819 -0.729 -0.8305 -0.992 -0.887 -0.095 -0.7145 0.343
-0.0935 -1.997 -1.904 1.046 0.9055 -1.95 -0.9475 -0.816 -0.7255 -0.8285 -0.9935 -0.888 -0.0975 -0.7085 0.343
-0.092 -1.992 -1.901 1.042 0.905 -1.946 -0.949 -0.8135 -0.7225 -0.825 -0.9925 -0.8895 -0.098 -0.7085 0.3395
-0.092 -1.992 -1.901 1.042 0.9045 -1.946 -0.9455 -0.813 -0.7205 -0.8215 -0.992 -0.891 -0.097 -0.712 0.3405
-0.095 -1.998 -1.903 1.046 0.9045 -1.95 -0.945 -0.811 -0.7195 -0.8195 -0.99 -0.892 -0.098 -0.71 0.338
-0.0925 -1.998 -1.906 1.046 0.907 -1.952 -0.9435 -0.806 -0.716 -0.817 -0.9875 -0.8895 -0.0955 -0.7105 0.3345
-0.096 -1.998 -1.903 1.047 0.9035 -1.95 -0.9355 -0.806 -0.717 -0.816 -0.9845 -0.8875 -0.0965 -0.7145 0.334
-0.099 -2.001 -1.903 1.05 0.902 -1.952 -0.9345 -0.8065 -0.715 -0.8125 -0.9805 -0.8855 -0.095 -0.7165 0.332
-0.1 -2.004 -1.905 1.052 0.9025 -1.954 -0.9345 -0.801 -0.71 -0.806 -0.977 -0.884 -0.0935 -0.714 0.3325
-0.097 -2.005 -1.908 1.052 0.906 -1.957 -0.935 -0.8 -0.7095 -0.8035 -0.976 -0.885 -0.0945 -0.7175 0.3325
-0.0985 -2.005 -1.907 1.052 0.905 -1.956 -0.9355 -0.797 -0.7075 -0.8025 -0.9755 -0.8835 -0.0955 -0.7205 0.3305
-0.091 -1.999 -1.908 1.046 0.9085 -1.954 -0.9335 -0.794 -0.7045 -0.799 -0.973 -0.882 -0.093 -0.722 0.3305
-0.083 -2 -1.917 1.042 0.9165 -1.958 -0.933 -0.793 -0.703 -0.7985 -0.9735 -0.8825 -0.0945 -0.7265 0.3315
-0.083 -1.997 -1.914 1.04 0.9155 -1.956 -0.9355 -0.793 -0.7035 -0.801 -0.9735 -0.883 -0.0965 -0.725 0.3315
-0.089 -1.994 -1.905 1.042 0.908 -1.95 -0.9365 -0.7935 -0.704 -0.799 -0.973 -0.885 -0.0985 -0.7195 0.3285
-0.0935 -1.994 -1.901 1.044 0.904 -1.948 -0.9365 -0.7955 -0.706 -0.8045 -0.9775 -0.888 -0.1025 -0.7165 0.3285
-0.0935 -1.992 -1.899 1.042 0.9025 -1.945 -0.937 -0.7995 -0.7105 -0.813 -0.9825 -0.893 -0.1055 -0.7105 0.328
-0.097 -1.992 -1.895 1.045 0.8995 -1.944 -0.9375 -0.7975 -0.71 -0.8135 -0.984 -0.8955 -0.11 -0.701 0.3265
-0.088 -1.986 -1.897 1.037 0.9045 -1.942 -0.939 -0.794 -0.706 -0.81 -0.9815 -0.8905 -0.106 -0.7075 0.325
-0.0855 -1.98 -1.895 1.033 0.905 -1.938 -0.939 -0.795 -0.7065 -0.8095 -0.982 -0.8915 -0.1055 -0.7105 0.324
-0.092 -1.984 -1.891 1.038 0.9 -1.938 -0.94 -0.7955 -0.706 -0.8095 -0.9805 -0.8925 -0.1075 -0.7015 0.324
-0.0925 -1.988 -1.895 1.04 0.9015 -1.942 -0.939 -0.7945 -0.709 -0.812 -0.98 -0.892 -0.1055 -0.7055 0.3255
-0.0935 -1.986 -1.893 1.04 0.9 -1.939 -0.936 -0.792 -0.7075 -0.814 -0.98 -0.892 -0.1045 -0.705 0.3245
-0.0925 -1.986 -1.895 1.04 0.9015 -1.94 -0.9335 -0.7885 -0.706 -0.814 -0.9775 -0.89 -0.102 -0.7065 0.3225
-0.092 -1.994 -1.903 1.044 0.9055 -1.949 -0.9325 -0.786 -0.708 -0.8175 -0.9805 -0.89 -0.1045 -0.7115 0.3235
-0.097 -2 -1.903 1.049 0.9035 -1.952 -0.928 -0.78 -0.7015 -0.815 -0.98 -0.8875 -0.1035 -0.7125 0.325
-0.097 -2.003 -1.907 1.051 0.905 -1.956 -0.923 -0.774 -0.696 -0.811 -0.979 -0.886 -0.1025 -0.72 0.3235
-0.093 -2.003 -1.911 1.049 0.909 -1.958 -0.921 -0.7725 -0.694 -0.812 -0.979 -0.888 -0.103 -0.7235 0.323
-0.092 -2.002 -1.911 1.048 0.9095 -1.956 -0.9205 -0.768 -0.6905 -0.808 -0.9765 -0.8865 -0.1005 -0.7265 0.3205
-0.093 -2.005 -1.913 1.05 0.91 -1.959 -0.917 -0.7655 -0.6855 -0.7995 -0.9725 -0.883 -0.099 -0.7305 0.315
-0.0895 -2.004 -1.915 1.048 0.913 -1.96 -0.9145 -0.7635 -0.684 -0.7995 -0.9705 -0.883 -0.0995 -0.734 0.3185
-0.0845 -1.998 -1.913 1.042 0.9145 -1.956 -0.9165 -0.762 -0.681 -0.797 -0.9705 -0.885 -0.0995 -0.736 0.3165
-0.086 -2.002 -1.917 1.045 0.9155 -1.96 -0.9135 -0.759 -0.6765 -0.791 -0.97 -0.885 -0.1005 -0.7355 0.3135
-0.079 -2 -1.921 1.04 0.921 -1.96 -0.915 -0.7575 -0.675 -0.789 -0.9695 -0.8845 -0.0995 -0.7395 0.314
-0.0845 -1.998 -1.914 1.042 0.915 -1.956 -0.9185 -0.761 -0.676 -0.792 -0.973 -0.8865 -0.0995 -0.732 0.313
-0.087 -2.002 -1.915 1.045 0.9135 -1.958 -0.9155 -0.762 -0.678 -0.7955 -0.981 -0.8885 -0.101 -0.72 0.3125
-0.0785 -1.995 -1.917 1.037 0.9195 -1.956 -0.9155 -0.76 -0.679 -0.799 -0.983 -0.8875 -0.0995 -0.724 0.314
-0.083 -1.994 -1.911 1.039 0.9145 -1.953 -0.9205 -0.7605 -0.683 -0.8005 -0.9845 -0.8895 -0.101 -0.7225 0.3165
-0.0865 -1.996 -1.909 1.042 0.9115 -1.952 -0.9245 -0.7635 -0.688 -0.8025 -0.988 -0.8915 -0.102 -0.7145 0.317
-0.101 -1.999 -1.898 1.05 0.899 -1.948 -0.924 -0.769 -0.692 -0.81 -0.9955 -0.8985 -0.1075 -0.7105 0.317
-0.101 -1.997 -1.896 1.05 0.8975 -1.946 -0.926 -0.7685 -0.693 -0.813 -0.9985 -0.9025 -0.111 -0.713 0.318
-0.0885 -1.992 -1.903 1.04 0.9075 -1.948 -0.9255 -0.766 -0.6925 -0.8155 -0.997 -0.8985 -0.11 -0.715 0.32
-0.0915 -1.989 -1.897 1.04 0.9035 -1.944 -0.9255 -0.765 -0.6905 -0.815 -0.998 -0.898 -0.1105 -0.714 0.3155
-0.0945 -1.988 -1.894 1.042 0.8995 -1.941 -0.9235 -0.7605 -0.687 -0.813 -0.9935 -0.8945 -0.1095 -0.713 0.31
-0.1005 -1.992 -1.891 1.046 0.8955 -1.941 -0.9135 -0.757 -0.682 -0.8125 -0.993 -0.8935 -0.1125 -0.712 0.305
-0.1075 -1.997 -1.889 1.052 0.891 -1.944 -0.9165 -0.756 -0.6805 -0.8095 -0.993 -0.8945 -0.112 -0.714 0.3045
-0.1045 -1.993 -1.889 1.049 0.892 -1.94 -0.915 -0.7535 -0.678 -0.804 -0.9875 -0.8915 -0.1105 -0.711 0.306
-0.0965 -1.989 -1.893 1.043 0.8985 -1.941 -0.91 -0.749 -0.671 -0.7975 -0.983 -0.889 -0.109 -0.7165 0.302
-0.0975 -1.996 -1.899 1.047 0.901 -1.948 -0.9135 -0.746 -0.6665 -0.797 -0.98 -0.8885 -0.107 -0.7235 0.3045
-0.1005 -1.999 -1.899 1.05 0.899 -1.949 -0.9115 -0.7435 -0.664 -0.796 -0.9805 -0.8885 -0.1065 -0.7225 0.305
-0.1025 -2 -1.897 1.052 0.898 -1.949 -0.9105 -0.74 -0.662 -0.796 -0.9805 -0.889 -0.1055 -0.7225 0.3015
-0.1025 -1.996 -1.895 1.05 0.896 -1.946 -0.9065 -0.7365 -0.661 -0.7965 -0.98 -0.8905 -0.108 -0.7215 0.2995
-0.0995 -1.998 -1.899 1.049 0.8995 -1.948 -0.9045 -0.734 -0.661 -0.7975 -0.9835 -0.8925 -0.11 -0.7245 0.3015
-0.0955 -1.998 -1.903 1.047 0.904 -1.951 -0.906 -0.735 -0.6635 -0.8025 -0.9895 -0.895 -0.1115 -0.728 0.3085
-0.092 -1.99 -1.898 1.042 0.903 -1.944 -0.9065 -0.735 -0.666 -0.8055 -0.9935 -0.8975 -0.111 -0.723 0.305
-0.094 -1.99 -1.897 1.042 0.9015 -1.943 -0.9065 -0.73 -0.663 -0.805 -0.9955 -0.899 -0.112 -0.7175 0.3015
-0.096 -1.99 -1.895 1.044 0.8995 -1.942 -0.906 -0.73 -0.662 -0.8075 -0.9995 -0.903 -0.115 -0.7195 0.303
-0.0945 -1.987 -1.893 1.041 0.8995 -1.94 -0.907 -0.729 -0.6615 -0.809 -1.004 -0.9055 -0.116 -0.715 0.301
-0.094 -1.988 -1.894 1.042 0.9005 -1.941 -0.9065 -0.727 -0.661 -0.811 -1.01 -0.9085 -0.117 -0.7095 0.2985
-0.0965 -1.988 -1.892 1.042 0.898 -1.94 -0.9065 -0.7285 -0.664 -0.818 -1.018 -0.914 -0.119 -0.7095 0.299
-0.101 -1.993 -1.892 1.047 0.896 -1.942 -0.906 -0.7235 -0.663 -0.82 -1.02 -0.9155 -0.1195 -0.7095 0.298
-0.0975 -1.997 -1.9 1.048 0.9015 -1.949 -0.906 -0.7205 -0.66 -0.8195 -1.02 -0.9155 -0.118 -0.71 0.296
-0.095 -1.994 -1.9 1.045 0.903 -1.948 -0.9045 -0.7175 -0.657 -0.817 -1.02 -0.9145 -0.1165 -0.717 0.294
-0.0985 -1.998 -1.899 1.048 0.9005 -1.948 -0.8995 -0.714 -0.6555 -0.817 -1.021 -0.9155 -0.1175 -0.723 0.2925
-0.099 -2.003 -1.905 1.052 0.903 -1.954 -0.896 -0.7105 -0.6515 -0.8175 -1.022 -0.9145 -0.119 -0.727 0.292
-0.1005 -2.006 -1.905 1.054 0.903 -1.956 -0.8905 -0.704 -0.647 -0.814 -1.018 -0.911 -0.1175 -0.731 0.291
-0.097 -2.005 -1.908 1.051 0.906 -1.956 -0.889 -0.698 -0.644 -0.8125 -1.016 -0.9075 -0.1145 -0.728 0.293
-0.0945 -2.006 -1.911 1.05 0.909 -1.959 -0.8855 -0.6925 -0.6405 -0.811 -1.012 -0.903 -0.113 -0.727 0.2905
-0.0965 -2.008 -1.912 1.052 0.908 -1.96 -0.883 -0.69 -0.64 -0.8075 -1.006 -0.901 -0.1115 -0.7285 0.288
-0.104 -2.018 -1.914 1.062 0.9055 -1.966 -0.882 -0.689 -0.6395 -0.8065 -1.006 -0.901 -0.11 -0.7255 0.2905
-0.101 -2.014 -1.913 1.058 0.9065 -1.964 -0.8755 -0.6825 -0.6345 -0.804 -1.004 -0.899 -0.11 -0.73 0.2845
-0.0895 -2.002 -1.913 1.046 0.912 -1.958 -0.875 -0.679 -0.6315 -0.8015 -1 -0.899 -0.112 -0.738 0.2835
-0.095 -2.01 -1.915 1.052 0.9105 -1.962 -0.871 -0.676 -0.6315 -0.8015 -0.9975 -0.9025 -0.1175 -0.735 0.284
-0.1005 -2.014 -1.913 1.058 0.9065 -1.964 -0.868 -0.6715 -0.6305 -0.8005 -0.997 -0.909 -0.1215 -0.732 0.278
-0.097 -2.006 -1.909 1.052 0.9065 -1.958 -0.8725 -0.6755 -0.6315 -0.8005 -1 -0.9145 -0.1195 -0.7295 0.2785
-0.098 -2.003 -1.906 1.051 0.904 -1.954 -0.8705 -0.673 -0.6305 -0.8035 -1.003 -0.919 -0.1215 -0.727 0.2785
-0.104 -2.006 -1.903 1.056 0.8995 -1.954 -0.8655 -0.667 -0.629 -0.8065 -1.006 -0.9225 -0.127 -0.725 0.273
-0.099 -2.001 -1.902 1.05 0.9015 -1.952 -0.8665 -0.6645 -0.6285 -0.808 -1.007 -0.923 -0.1265 -0.7255 0.273
-0.0945 -1.994 -1.901 1.045 0.9035 -1.948 -0.869 -0.6625 -0.6275 -0.8115 -1.008 -0.9245 -0.1255 -0.725 0.2745
-0.1035 -1.996 -1.893 1.05 0.895 -1.944 -0.87 -0.665 -0.631 -0.818 -1.014 -0.9295 -0.1295 -0.7185 0.272
-0.108 -1.998 -1.889 1.053 0.891 -1.944 -0.8665 -0.66 -0.6315 -0.823 -1.016 -0.9285 -0.1295 -0.7165 0.2705
-0.1015 -1.996 -1.895 1.05 0.897 -1.946 -0.8645 -0.656 -0.6285 -0.82 -1.014 -0.9225 -0.1255 -0.725 0.2685
-0.0985 -1.992 -1.893 1.046 0.898 -1.942 -0.867 -0.659 -0.6295 -0.819 -1.012 -0.922 -0.1265 -0.7265 0.269
-0.111 -1.998 -1.887 1.056 0.8885 -1.944 -0.8625 -0.6565 -0.6295 -0.818 -1.015 -0.9255 -0.131 -0.721 0.2665
-0.111 -2.004 -1.893 1.058 0.8915 -1.949 -0.859 -0.652 -0.624 -0.8115 -1.014 -0.9245 -0.1315 -0.7245 0.265
-0.1015 -2 -1.899 1.051 0.899 -1.95 -0.857 -0.647 -0.6185 -0.8075 -1.011 -0.921 -0.13 -0.73 0.266
-0.1115 -2.006 -1.895 1.06 0.892 -1.951 -0.853 -0.645 -0.6155 -0.807 -1.014 -0.923 -0.1355 -0.731 0.264
-0.1105 -2.009 -1.898 1.06 0.894 -1.954 -0.8505 -0.6415 -0.611 -0.806 -1.014 -0.923 -0.136 -0.732 0.265
-0.102 -2.007 -1.905 1.055 0.902 -1.956 -0.846 -0.633 -0.6055 -0.803 -1.012 -0.9215 -0.134 -0.7395 0.2625
-0.102 -2.01 -1.909 1.056 0.9035 -1.96 -0.842 -0.6295 -0.6015 -0.7995 -1.013 -0.9185 -0.134 -0.7375 0.262
-0.107 -2.01 -1.904 1.06 0.8985 -1.957 -0.8385 -0.629 -0.601 -0.799 -1.014 -0.919 -0.1335 -0.729 0.258
-0.1125 -2.01 -1.897 1.062 0.8925 -1.954 -0.836 -0.6275 -0.601 -0.797 -1.015 -0.921 -0.135 -0.7375 0.253
-0.113 -2.016 -1.903 1.065 0.895 -1.96 -0.837 -0.6275 -0.601 -0.796 -1.014 -0.921 -0.1345 -0.7435 0.259
-0.112 -2.018 -1.907 1.065 0.898 -1.962 -0.8355 -0.627 -0.6045 -0.7995 -1.018 -0.9235 -0.137 -0.7335 0.257
-0.1085 -2.008 -1.9 1.059 0.896 -1.954 -0.8345 -0.6255 -0.604 -0.8005 -1.018 -0.9235 -0.1375 -0.7275 0.2525
-0.112 -2.002 -1.891 1.058 0.8895 -1.947 -0.835 -0.627 -0.604 -0.8035 -1.018 -0.9245 -0.137 -0.7275 0.2525
-0.12 -2.003 -1.884 1.062 0.8825 -1.944 -0.836 -0.6265 -0.6045 -0.8055 -1.02 -0.9235 -0.1345 -0.721 0.2515
-0.1185 -2.002 -1.884 1.06 0.883 -1.943 -0.8385 -0.6285 -0.6065 -0.806 -1.022 -0.925 -0.1345 -0.7175 0.254
-0.1175 -1.999 -1.881 1.059 0.8825 -1.94 -0.8375 -0.635 -0.611 -0.812 -1.031 -0.931 -0.1415 -0.7245 0.257
-0.119 -1.994 -1.875 1.056 0.8785 -1.935 -0.8395 -0.6395 -0.6145 -0.8185 -1.034 -0.9325 -0.143 -0.718 0.26
-0.117 -1.99 -1.873 1.054 0.8785 -1.931 -0.8405 -0.64 -0.617 -0.823 -1.034 -0.9325 -0.1435 -0.711 0.259
-0.1235 -1.995 -1.871 1.06 0.8745 -1.933 -0.841 -0.6435 -0.623 -0.8265 -1.036 -0.9335 -0.146 -0.7175 0.2585
-0.1235 -1.992 -1.869 1.058 0.8725 -1.93 -0.8415 -0.6485 -0.6305 -0.833 -1.038 -0.9355 -0.147 -0.715 0.258
-0.1235 -1.992 -1.869 1.058 0.873 -1.931 -0.8405 -0.649 -0.6335 -0.8365 -1.039 -0.9365 -0.149 -0.718 0.2595
-0.1295 -2.004 -1.875 1.067 0.873 -1.94 -0.84 -0.6515 -0.6355 -0.8385 -1.04 -0.937 -0.149 -0.7235 0.2625
-0.1305 -2.006 -1.876 1.069 0.873 -1.942 -0.8415 -0.654 -0.6355 -0.8385 -1.039 -0.9355 -0.147 -0.7285 0.264
-0.1285 -2.002 -1.875 1.065 0.8735 -1.938 -0.8415 -0.653 -0.633 -0.832 -1.034 -0.929 -0.144 -0.7275 0.263
-0.13 -2 -1.871 1.065 0.8705 -1.935 -0.8355 -0.653 -0.6305 -0.828 -1.032 -0.928 -0.1445 -0.716 0.26
-0.128 -1.998 -1.871 1.063 0.8715 -1.935 -0.834 -0.655 -0.633 -0.828 -1.032 -0.926 -0.1445 -0.7175 0.261
-0.127 -2.002 -1.875 1.065 0.8745 -1.939 -0.8355 -0.6595 -0.6355 -0.828 -1.034 -0.9205 -0.142 -0.721 0.2655
-0.136 -2.003 -1.867 1.07 0.866 -1.935 -0.836 -0.663 -0.637 -0.8275 -1.034 -0.9195 -0.1435 -0.7225 0.2685
-0.1345 -1.993 -1.859 1.064 0.862 -1.926 -0.839 -0.6665 -0.6385 -0.826 -1.029 -0.9155 -0.1445 -0.7185 0.2655
-0.1295 -1.99 -1.861 1.06 0.866 -1.925 -0.842 -0.673 -0.642 -0.8275 -1.031 -0.9125 -0.1455 -0.7175 0.2655
-0.131 -1.986 -1.855 1.058 0.862 -1.921 -0.843 -0.677 -0.6475 -0.8325 -1.034 -0.912 -0.1475 -0.718 0.2665
-0.1325 -1.978 -1.845 1.056 0.8565 -1.912 -0.8455 -0.685 -0.6525 -0.8375 -1.034 -0.9115 -0.1445 -0.7015 0.2665
-0.136 -1.976 -1.839 1.056 0.852 -1.907 -0.8485 -0.6935 -0.6575 -0.839 -1.034 -0.911 -0.143 -0.6935 0.268
-0.1355 -1.969 -1.833 1.052 0.849 -1.901 -0.8455 -0.695 -0.659 -0.837 -1.03 -0.9095 -0.1455 -0.694 0.266
-0.1255 -1.96 -1.835 1.043 0.8545 -1.897 -0.855 -0.7025 -0.663 -0.8365 -1.029 -0.9105 -0.142 -0.696 0.27
-0.131 -1.957 -1.826 1.044 0.848 -1.891 -0.86 -0.71 -0.665 -0.837 -1.027 -0.909 -0.1415 -0.6895 0.2715
-0.1405 -1.954 -1.814 1.048 0.837 -1.885 -0.8585 -0.717 -0.6705 -0.841 -1.028 -0.909 -0.145 -0.682 0.2705
-0.14 -1.952 -1.813 1.046 0.837 -1.883 -0.866 -0.7265 -0.679 -0.8475 -1.032 -0.91 -0.1445 -0.683 0.2735
-0.138 -1.954 -1.816 1.046 0.8395 -1.885 -0.87 -0.7315 -0.684 -0.8505 -1.033 -0.9055 -0.143 -0.681 0.277
-0.136 -1.95 -1.813 1.044 0.839 -1.881 -0.876 -0.7405 -0.691 -0.856 -1.036 -0.9045 -0.1415 -0.679 0.281
-0.149 -1.954 -1.806 1.052 0.8285 -1.879 -0.8755 -0.75 -0.6965 -0.8595 -1.038 -0.905 -0.145 -0.6725 0.281
-0.148 -1.956 -1.808 1.052 0.8305 -1.882 -0.876 -0.7555 -0.7 -0.861 -1.04 -0.9035 -0.147 -0.6835 0.2815
-0.1405 -1.95 -1.81 1.046 0.8345 -1.879 -0.8805 -0.7625 -0.7055 -0.864 -1.042 -0.9015 -0.1475 -0.6815 0.2855
-0.1485 -1.952 -1.804 1.05 0.8275 -1.878 -0.8815 -0.773 -0.7125 -0.87 -1.043 -0.898 -0.149 -0.671 0.2895
-0.1555 -1.954 -1.798 1.056 0.8215 -1.877 -0.8825 -0.7805 -0.719 -0.8745 -1.044 -0.8945 -0.1515 -0.6765 0.2905
-0.156 -1.953 -1.797 1.055 0.8205 -1.875 -0.8845 -0.786 -0.725 -0.8785 -1.044 -0.892 -0.151 -0.6705 0.2925
-0.146 -1.948 -1.803 1.048 0.829 -1.876 -0.8895 -0.7945 -0.7295 -0.879 -1.04 -0.8875 -0.146 -0.672 0.3005
-0.1415 -1.942 -1.8 1.042 0.83 -1.871 -0.8925 -0.804 -0.7355 -0.879 -1.036 -0.882 -0.1445 -0.6725 0.3035
-0.15 -1.94 -1.789 1.045 0.8195 -1.865 -0.896 -0.817 -0.7445 -0.882 -1.034 -0.878 -0.143 -0.665 0.308
-0.148 -1.94 -1.792 1.044 0.8225 -1.867 -0.9035 -0.827 -0.7515 -0.881 -1.026 -0.874 -0.137 -0.663 0.3145
-0.14 -1.935 -1.796 1.038 0.828 -1.865 -0.906 -0.8325 -0.754 -0.877 -1.019 -0.868 -0.1325 -0.666 0.3135
-0.1405 -1.928 -1.788 1.034 0.824 -1.857 -0.9095 -0.8435 -0.7605 -0.8765 -1.014 -0.862 -0.131 -0.6555 0.315
-0.142 -1.922 -1.78 1.032 0.819 -1.851 -0.9175 -0.857 -0.7705 -0.8795 -1.012 -0.8625 -0.1285 -0.6465 0.319
-0.144 -1.921 -1.777 1.032 0.817 -1.849 -0.923 -0.867 -0.775 -0.879 -1.01 -0.8615 -0.1265 -0.651 0.319
-0.1425 -1.916 -1.774 1.03 0.8155 -1.845 -0.925 -0.8765 -0.7795 -0.88 -1.01 -0.86 -0.1285 -0.647 0.3185
-0.146 -1.911 -1.766 1.028 0.81 -1.839 -0.9315 -0.8905 -0.789 -0.885 -1.013 -0.8635 -0.133 -0.643 0.323
-0.1465 -1.907 -1.761 1.027 0.8075 -1.835 -0.943 -0.906 -0.801 -0.888 -1.014 -0.8655 -0.1315 -0.637 0.3295
-0.146 -1.903 -1.757 1.025 0.8055 -1.83 -0.949 -0.9185 -0.808 -0.889 -1.011 -0.8655 -0.1305 -0.6315 0.33
-0.15 -1.904 -1.754 1.028 0.802 -1.829 -0.9525 -0.931 -0.8125 -0.8885 -1.009 -0.865 -0.1325 -0.634 0.332
-0.148 -1.893 -1.746 1.021 0.799 -1.819 -0.955 -0.9385 -0.8155 -0.886 -1.006 -0.8645 -0.134 -0.6245 0.3315
-0.1465 -1.888 -1.742 1.018 0.798 -1.815 -0.9565 -0.9445 -0.8175 -0.8845 -1.003 -0.8625 -0.1345 -0.626 0.3325
-0.15 -1.897 -1.746 1.024 0.7985 -1.821 -0.963 -0.954 -0.8225 -0.8835 -1.001 -0.862 -0.1355 -0.633 0.343
-0.151 -1.899 -1.748 1.026 0.799 -1.824 -0.9675 -0.96 -0.824 -0.88 -1 -0.861 -0.134 -0.628 0.3465
-0.141 -1.893 -1.752 1.018 0.806 -1.823 -0.97 -0.964 -0.827 -0.8785 -0.9985 -0.8555 -0.129 -0.633 0.351
-0.142 -1.891 -1.75 1.017 0.804 -1.821 -0.973 -0.9735 -0.8325 -0.881 -1 -0.8535 -0.13 -0.626 0.3545
-0.1495 -1.897 -1.747 1.023 0.799 -1.821 -0.9725 -0.98 -0.836 -0.8815 -0.9985 -0.8505 -0.1285 -0.629 0.3565
-0.149 -1.901 -1.752 1.026 0.802 -1.827 -0.974 -0.985 -0.8395 -0.8785 -0.9945 -0.845 -0.1245 -0.6335 0.3615
-0.149 -1.903 -1.754 1.026 0.803 -1.829 -0.9775 -0.993 -0.844 -0.878 -0.994 -0.843 -0.1235 -0.628 0.363
-0.145 -1.897 -1.752 1.021 0.804 -1.825 -0.982 -1.002 -0.851 -0.882 -0.995 -0.8425 -0.123 -0.6375 0.368
-0.145 -1.897 -1.752 1.022 0.804 -1.825 -0.9855 -1.008 -0.857 -0.8865 -0.995 -0.8395 -0.1215 -0.636 0.3725
-0.147 -1.899 -1.752 1.023 0.803 -1.825 -0.9875 -1.015 -0.863 -0.891 -0.994 -0.8365 -0.1175 -0.6295 0.376
-0.142 -1.893 -1.751 1.018 0.805 -1.822 -0.9925 -1.028 -0.869 -0.8955 -0.996 -0.833 -0.115 -0.633 0.3785
-0.1365 -1.889 -1.752 1.013 0.808 -1.82 -0.9945 -1.031 -0.8715 -0.897 -0.9975 -0.8295 -0.1115 -0.634 0.3805
-0.1405 -1.89 -1.75 1.016 0.805 -1.819 -1 -1.038 -0.8785 -0.9015 -0.999 -0.832 -0.1115 -0.6265 0.383
-0.1475 -1.895 -1.747 1.021 0.8 -1.821 -1.008 -1.049 -0.8845 -0.906 -1 -0.8315 -0.1105 -0.621 0.3875
-0.142 -1.888 -1.746 1.016 0.8025 -1.817 -1.012 -1.054 -0.8885 -0.9095 -0.9995 -0.8285 -0.109 -0.622 0.389
-0.1315 -1.875 -1.743 1.003 0.806 -1.808 -1.014 -1.058 -0.8915 -0.9105 -0.999 -0.8265 -0.108 -0.622 0.39
-0.1365 -1.881 -1.745 1.009 0.8045 -1.813 -1.017 -1.062 -0.897 -0.917 -0.9985 -0.826 -0.1075 -0.623 0.3925
-0.138 -1.887 -1.748 1.012 0.8055 -1.817 -1.02 -1.069 -0.908 -0.926 -1.001 -0.8275 -0.1085 -0.625 0.3955
-0.1375 -1.881 -1.743 1.01 0.803 -1.812 -1.024 -1.077 -0.917 -0.9275 -1.001 -0.8295 -0.1075 -0.6205 0.4005
-0.143 -1.885 -1.742 1.014 0.8 -1.813 -1.026 -1.081 -0.922 -0.927 -0.9975 -0.831 -0.108 -0.627 0.4025
-0.151 -1.897 -1.746 1.024 0.7975 -1.821 -1.025 -1.087 -0.9255 -0.9295 -1 -0.835 -0.1095 -0.637 0.4035
-0.154 -1.902 -1.748 1.028 0.7975 -1.825 -1.022 -1.089 -0.927 -0.93 -1.002 -0.834 -0.112 -0.637 0.404
-0.143 -1.893 -1.75 1.018 0.804 -1.822 -1.024 -1.089 -0.927 -0.9245 -0.9965 -0.829 -0.11 -0.639 0.4075
-0.143 -1.893 -1.75 1.018 0.8035 -1.821 -1.026 -1.091 -0.927 -0.918 -0.9955 -0.8315 -0.1105 -0.6385 0.407
-0.1445 -1.893 -1.748 1.019 0.8025 -1.821 -1.026 -1.087 -0.9215 -0.9125 -0.9925 -0.832 -0.1125 -0.638 0.4075
-0.1455 -1.897 -1.752 1.021 0.8035 -1.824 -1.024 -1.089 -0.9195 -0.9105 -0.989 -0.8315 -0.112 -0.6415 0.4075
-0.1475 -1.897 -1.75 1.022 0.802 -1.824 -1.028 -1.096 -0.9215 -0.909 -0.9905 -0.8325 -0.1115 -0.6425 0.4095
-0.1395 -1.889 -1.749 1.014 0.805 -1.819 -1.032 -1.095 -0.9205 -0.9065 -0.991 -0.831 -0.109 -0.6385 0.4115
-0.1365 -1.891 -1.755 1.014 0.8095 -1.823 -1.032 -1.095 -0.9205 -0.9055 -0.99 -0.83 -0.108 -0.641 0.411
-0.1365 -1.893 -1.756 1.014 0.81 -1.825 -1.036 -1.1 -0.923 -0.9045 -0.989 -0.8315 -0.107 -0.645 0.4155
-0.1355 -1.892 -1.756 1.014 0.8105 -1.824 -1.034 -1.101 -0.924 -0.9055 -0.9895 -0.834 -0.1065 -0.644 0.413
-0.133 -1.889 -1.756 1.012 0.812 -1.823 -1.04 -1.105 -0.9295 -0.9095 -0.993 -0.837 -0.1055 -0.638 0.4155
-0.1315 -1.888 -1.756 1.01 0.8125 -1.822 -1.048 -1.111 -0.934 -0.9155 -0.9975 -0.8405 -0.1035 -0.6345 0.422
-0.1325 -1.891 -1.758 1.012 0.813 -1.825 -1.048 -1.111 -0.9345 -0.9195 -0.9995 -0.841 -0.1035 -0.643 0.423
-0.132 -1.888 -1.756 1.01 0.812 -1.821 -1.048 -1.111 -0.9355 -0.9185 -0.9975 -0.841 -0.103 -0.6395 0.4225
-0.1385 -1.888 -1.75 1.014 0.806 -1.819 -1.052 -1.114 -0.938 -0.922 -0.998 -0.8435 -0.1045 -0.6305 0.4205
-0.14 -1.891 -1.75 1.016 0.8055 -1.821 -1.059 -1.119 -0.9425 -0.925 -0.9975 -0.844 -0.104 -0.6335 0.424
-0.134 -1.891 -1.757 1.013 0.8115 -1.825 -1.06 -1.121 -0.946 -0.9265 -1 -0.8455 -0.104 -0.641 0.4265
-0.1325 -1.889 -1.756 1.01 0.812 -1.822 -1.059 -1.121 -0.947 -0.93 -1.004 -0.849 -0.1065 -0.645 0.4285
-0.1385 -1.893 -1.755 1.016 0.8085 -1.824 -1.062 -1.121 -0.949 -0.932 -1.006 -0.851 -0.1075 -0.6455 0.43
-0.146 -1.909 -1.763 1.027 0.809 -1.835 -1.057 -1.117 -0.9465 -0.9345 -1.009 -0.8525 -0.1105 -0.6465 0.432
-0.136 -1.907 -1.77 1.022 0.817 -1.839 -1.056 -1.111 -0.9395 -0.9305 -1.009 -0.851 -0.111 -0.648 0.4315
-0.1305 -1.909 -1.778 1.02 0.8245 -1.844 -1.056 -1.109 -0.935 -0.927 -1.008 -0.851 -0.11 -0.653 0.429
-0.1395 -1.916 -1.776 1.028 0.819 -1.847 -1.053 -1.107 -0.932 -0.923 -1.008 -0.852 -0.1095 -0.656 0.4275
-0.1345 -1.912 -1.778 1.024 0.822 -1.845 -1.052 -1.107 -0.929 -0.9215 -1.006 -0.848 -0.1075 -0.659 0.429
-0.127 -1.912 -1.785 1.02 0.8295 -1.849 -1.049 -1.105 -0.926 -0.919 -1.006 -0.845 -0.105 -0.666 0.4305
-0.13 -1.915 -1.785 1.022 0.8275 -1.85 -1.049 -1.105 -0.9245 -0.916 -1.006 -0.844 -0.104 -0.6645 0.4285
-0.131 -1.917 -1.786 1.024 0.8275 -1.851 -1.054 -1.105 -0.9255 -0.9165 -1.005 -0.8425 -0.102 -0.665 0.4285
-0.128 -1.923 -1.794 1.026 0.8335 -1.859 -1.051 -1.104 -0.9265 -0.917 -1.008 -0.8415 -0.1015 -0.6605 0.428
-0.118 -1.921 -1.802 1.02 0.8425 -1.861 -1.052 -1.105 -0.9305 -0.9205 -1.008 -0.8395 -0.1 -0.666 0.431
-0.1145 -1.915 -1.8 1.015 0.8435 -1.858 -1.056 -1.104 -0.934 -0.9215 -1.004 -0.837 -0.096 -0.673 0.4345
-0.115 -1.915 -1.799 1.015 0.8425 -1.857 -1.058 -1.104 -0.935 -0.923 -1.004 -0.8355 -0.0945 -0.667 0.4335
-0.1185 -1.917 -1.798 1.018 0.84 -1.857 -1.064 -1.107 -0.939 -0.926 -1.004 -0.8355 -0.093 -0.6685 0.4335
-0.121 -1.921 -1.8 1.022 0.8395 -1.861 -1.063 -1.105 -0.9375 -0.9225 -1.002 -0.8355 -0.0935 -0.664 0.4285
-0.1215 -1.921 -1.8 1.021 0.8395 -1.86 -1.061 -1.103 -0.9335 -0.918 -1.001 -0.8325 -0.0915 -0.6565 0.425
-0.119 -1.918 -1.799 1.019 0.84 -1.859 -1.068 -1.109 -0.9355 -0.919 -1 -0.835 -0.0895 -0.6595 0.4285
-0.12 -1.92 -1.8 1.02 0.8405 -1.86 -1.067 -1.109 -0.933 -0.916 -1 -0.836 -0.09 -0.662 0.426
-0.1345 -1.927 -1.793 1.031 0.8295 -1.861 -1.062 -1.103 -0.9275 -0.909 -0.998 -0.835 -0.0905 -0.6535 0.422
-0.1285 -1.917 -1.789 1.024 0.8305 -1.853 -1.06 -1.101 -0.9245 -0.908 -0.9975 -0.8395 -0.0925 -0.656 0.42
-0.126 -1.917 -1.792 1.022 0.833 -1.855 -1.058 -1.101 -0.9265 -0.9105 -0.9985 -0.8435 -0.0955 -0.658 0.4225
-0.137 -1.927 -1.79 1.032 0.827 -1.859 -1.052 -1.098 -0.923 -0.91 -0.9965 -0.8445 -0.099 -0.6625 0.4195
-0.138 -1.929 -1.792 1.034 0.827 -1.861 -1.052 -1.093 -0.9175 -0.903 -0.993 -0.845 -0.097 -0.676 0.4155
-0.1345 -1.931 -1.796 1.033 0.831 -1.863 -1.057 -1.095 -0.9175 -0.8985 -0.9885 -0.8455 -0.0955 -0.674 0.421
-0.1275 -1.925 -1.797 1.026 0.835 -1.861 -1.058 -1.093 -0.9175 -0.8995 -0.987 -0.8465 -0.0955 -0.676 0.421
-0.129 -1.927 -1.798 1.028 0.8345 -1.862 -1.056 -1.091 -0.9165 -0.8985 -0.988 -0.8485 -0.096 -0.677 0.421
-0.133 -1.935 -1.802 1.034 0.8345 -1.868 -1.054 -1.089 -0.9145 -0.8965 -0.987 -0.85 -0.0985 -0.6745 0.42
-0.124 -1.93 -1.806 1.027 0.8415 -1.868 -1.051 -1.086 -0.9125 -0.8955 -0.9855 -0.849 -0.0975 -0.6825 0.4165
-0.121 -1.927 -1.806 1.024 0.843 -1.867 -1.05 -1.083 -0.913 -0.9005 -0.9875 -0.85 -0.0975 -0.68 0.413
-0.1245 -1.931 -1.806 1.028 0.8415 -1.869 -1.047 -1.083 -0.913 -0.9025 -0.9895 -0.85 -0.0985 -0.6815 0.4105
-0.119 -1.925 -1.806 1.022 0.844 -1.865 -1.052 -1.085 -0.917 -0.905 -0.9895 -0.849 -0.097 -0.683 0.415
-0.1225 -1.921 -1.798 1.022 0.8385 -1.86 -1.056 -1.09 -0.9205 -0.9145 -0.998 -0.854 -0.099 -0.6725 0.417
-0.118 -1.915 -1.797 1.016 0.8395 -1.856 -1.052 -1.087 -0.9175 -0.915 -0.999 -0.8545 -0.0995 -0.6695 0.413
-0.113 -1.916 -1.803 1.015 0.845 -1.859 -1.056 -1.087 -0.916 -0.9155 -1 -0.856 -0.096 -0.675 0.415
-0.123 -1.923 -1.8 1.022 0.8385 -1.861 -1.057 -1.091 -0.917 -0.9145 -1.004 -0.855 -0.0955 -0.675 0.4175
-0.1235 -1.919 -1.795 1.021 0.836 -1.857 -1.058 -1.089 -0.9145 -0.9155 -1.002 -0.8525 -0.0965 -0.6605 0.4165
-0.1155 -1.911 -1.796 1.014 0.841 -1.854 -1.06 -1.088 -0.9125 -0.919 -1.003 -0.8525 -0.0955 -0.6605 0.4185
-0.119 -1.917 -1.798 1.018 0.84 -1.857 -1.059 -1.087 -0.9095 -0.915 -1.002 -0.852 -0.0945 -0.6615 0.418
-0.1225 -1.927 -1.804 1.025 0.841 -1.865 -1.062 -1.089 -0.911 -0.9095 -1.002 -0.8535 -0.0915 -0.665 0.417
-0.123 -1.917 -1.794 1.02 0.836 -1.855 -1.059 -1.086 -0.907 -0.9015 -0.999 -0.8485 -0.0885 -0.6705 0.4155
-0.1305 -1.921 -1.792 1.026 0.8305 -1.857 -1.056 -1.086 -0.908 -0.8985 -0.996 -0.8495 -0.092 -0.6675 0.415
-0.135 -1.93 -1.796 1.032 0.8305 -1.863 -1.055 -1.089 -0.9155 -0.8985 -0.995 -0.8505 -0.094 -0.668 0.4165
-0.138 -1.929 -1.791 1.034 0.827 -1.86 -1.05 -1.087 -0.9145 -0.896 -0.9905 -0.8485 -0.095 -0.6655 0.4145
-0.125 -1.925 -1.8 1.026 0.838 -1.863 -1.054 -1.085 -0.913 -0.895 -0.987 -0.8475 -0.0925 -0.6735 0.416
-0.129 -1.925 -1.796 1.028 0.834 -1.861 -1.054 -1.083 -0.9125 -0.8965 -0.989 -0.847 -0.095 -0.6765 0.417
-0.136 -1.931 -1.794 1.034 0.8295 -1.863 -1.052 -1.084 -0.912 -0.8975 -0.9905 -0.8475 -0.099 -0.6765 0.4145
-0.1255 -1.927 -1.801 1.026 0.838 -1.864 -1.054 -1.077 -0.907 -0.8925 -0.9875 -0.844 -0.097 -0.6705 0.4115
-0.1335 -1.927 -1.794 1.03 0.8305 -1.861 -1.054 -1.075 -0.9035 -0.888 -0.9875 -0.846 -0.0995 -0.673 0.4125
-0.1335 -1.927 -1.792 1.03 0.8295 -1.859 -1.052 -1.077 -0.902 -0.885 -0.9865 -0.8475 -0.1005 -0.673 0.412
-0.123 -1.925 -1.802 1.024 0.84 -1.864 -1.049 -1.077 -0.8985 -0.885 -0.986 -0.8465 -0.103 -0.68 0.4115
-0.127 -1.929 -1.802 1.028 0.838 -1.866 -1.054 -1.076 -0.901 -0.889 -0.989 -0.8505 -0.1035 -0.6865 0.414
-0.1355 -1.929 -1.793 1.032 0.829 -1.861 -1.054 -1.079 -0.906 -0.895 -0.9935 -0.8545 -0.105 -0.665 0.4095
-0.123 -1.919 -1.796 1.022 0.837 -1.858 -1.054 -1.083 -0.9105 -0.9 -0.995 -0.854 -0.1045 -0.669 0.41
-0.118 -1.911 -1.794 1.015 0.8385 -1.853 -1.054 -1.08 -0.91 -0.9015 -0.9945 -0.8525 -0.102 -0.668 0.4085
-0.1275 -1.909 -1.782 1.018 0.8275 -1.845 -1.053 -1.081 -0.9095 -0.903 -0.995 -0.8555 -0.102 -0.6555 0.408
-0.125 -1.907 -1.783 1.016 0.8295 -1.845 -1.056 -1.083 -0.907 -0.9035 -0.997 -0.8565 -0.1 -0.6605 0.4105
-0.127 -1.903 -1.776 1.016 0.825 -1.84 -1.062 -1.083 -0.9075 -0.9025 -0.997 -0.857 -0.0995 -0.6555 0.4085
-0.131 -1.907 -1.776 1.019 0.8225 -1.841 -1.057 -1.087 -0.914 -0.9045 -0.9965 -0.8595 -0.101 -0.6505 0.4075
-0.1255 -1.91 -1.785 1.018 0.83 -1.847 -1.054 -1.089 -0.917 -0.909 -1 -0.861 -0.101 -0.6605 0.408
-0.124 -1.904 -1.78 1.014 0.8285 -1.843 -1.065 -1.087 -0.917 -0.907 -0.999 -0.861 -0.0995 -0.665 0.4125
-0.122 -1.903 -1.782 1.013 0.83 -1.843 -1.06 -1.084 -0.9145 -0.9045 -0.9955 -0.8605 -0.098 -0.666 0.4115
-0.122 -1.91 -1.788 1.016 0.833 -1.849 -1.056 -1.083 -0.914 -0.9035 -0.9965 -0.858 -0.0965 -0.666 0.41
-0.137 -1.918 -1.78 1.028 0.822 -1.849 -1.055 -1.083 -0.913 -0.9045 -0.9985 -0.8575 -0.0965 -0.6625 0.4115
-0.141 -1.919 -1.778 1.03 0.8185 -1.849 -1.054 -1.082 -0.91 -0.906 -0.9985 -0.8565 -0.0955 -0.667 0.4145
-0.133 -1.918 -1.785 1.026 0.826 -1.851 -1.052 -1.079 -0.9085 -0.9025 -0.996 -0.854 -0.0915 -0.673 0.417
-0.1365 -1.921 -1.785 1.029 0.8245 -1.853 -1.048 -1.079 -0.9045 -0.8995 -0.995 -0.8545 -0.093 -0.67 0.4135
-0.1375 -1.925 -1.788 1.032 0.825 -1.856 -1.05 -1.077 -0.9025 -0.897 -0.9935 -0.851 -0.0925 -0.6715 0.411
-0.133 -1.921 -1.788 1.027 0.8275 -1.854 -1.047 -1.077 -0.9035 -0.8975 -0.9965 -0.8505 -0.093 -0.676 0.413
-0.1415 -1.928 -1.786 1.035 0.823 -1.857 -1.048 -1.08 -0.905 -0.9015 -1.004 -0.854 -0.0955 -0.673 0.4135
-0.1415 -1.935 -1.794 1.038 0.8265 -1.865 -1.052 -1.081 -0.907 -0.9015 -1.006 -0.8525 -0.0945 -0.6775 0.4175
-0.1275 -1.925 -1.797 1.026 0.835 -1.861 -1.052 -1.081 -0.908 -0.903 -1.004 -0.8485 -0.0925 -0.6745 0.4175
-0.1315 -1.921 -1.79 1.026 0.829 -1.855 -1.054 -1.083 -0.908 -0.905 -1.002 -0.849 -0.093 -0.67 0.414
-0.135 -1.921 -1.786 1.028 0.8255 -1.853 -1.052 -1.085 -0.9105 -0.903 -1.002 -0.8515 -0.0945 -0.6745 0.4135
-0.132 -1.919 -1.787 1.026 0.828 -1.853 -1.054 -1.087 -0.9115 -0.901 -1.004 -0.855 -0.0965 -0.666 0.412
-0.1345 -1.917 -1.782 1.026 0.824 -1.85 -1.054 -1.086 -0.912 -0.9 -1.004 -0.856 -0.095 -0.662 0.4095
-0.133 -1.915 -1.781 1.024 0.8245 -1.848 -1.06 -1.09 -0.9145 -0.9 -1.001 -0.855 -0.093 -0.6665 0.4105
-0.1365 -1.911 -1.775 1.024 0.8195 -1.843 -1.065 -1.095 -0.918 -0.904 -1.002 -0.86 -0.0985 -0.6545 0.412
-0.142 -1.913 -1.771 1.028 0.815 -1.842 -1.063 -1.097 -0.92 -0.9075 -1.004 -0.8605 -0.1 -0.654 0.408
-0.1375 -1.917 -1.779 1.028 0.821 -1.848 -1.065 -1.097 -0.922 -0.9095 -1.004 -0.8595 -0.0985 -0.6655 0.407
-0.1325 -1.909 -1.776 1.021 0.822 -1.842 -1.065 -1.096 -0.9195 -0.908 -1.002 -0.858 -0.095 -0.672 0.4075
-0.142 -1.911 -1.769 1.026 0.814 -1.839 -1.063 -1.095 -0.917 -0.9045 -0.9995 -0.858 -0.096 -0.6555 0.402
-0.1475 -1.913 -1.766 1.031 0.81 -1.84 -1.06 -1.093 -0.917 -0.9055 -0.9975 -0.8595 -0.102 -0.6495 0.4
-0.141 -1.907 -1.766 1.024 0.8125 -1.836 -1.062 -1.089 -0.913 -0.903 -0.992 -0.8525 -0.099 -0.655 0.399
-0.137 -1.905 -1.768 1.022 0.816 -1.837 -1.063 -1.09 -0.9135 -0.9015 -0.992 -0.852 -0.1005 -0.649 0.4
-0.139 -1.905 -1.766 1.022 0.8135 -1.835 -1.06 -1.091 -0.914 -0.906 -0.993 -0.854 -0.106 -0.6605 0.403
-0.1415 -1.907 -1.766 1.024 0.8125 -1.837 -1.062 -1.089 -0.9125 -0.903 -0.992 -0.853 -0.107 -0.657 0.402
-0.1375 -1.912 -1.774 1.025 0.819 -1.843 -1.061 -1.087 -0.9115 -0.9025 -0.995 -0.856 -0.1095 -0.664 0.403
-0.141 -1.913 -1.772 1.027 0.816 -1.843 -1.06 -1.088 -0.9115 -0.903 -0.997 -0.8565 -0.109 -0.664 0.4035
-0.142 -1.915 -1.772 1.028 0.816 -1.844 -1.062 -1.09 -0.912 -0.9005 -0.9985 -0.8575 -0.107 -0.6545 0.4085
-0.1325 -1.915 -1.783 1.024 0.8255 -1.849 -1.062 -1.089 -0.9085 -0.898 -0.997 -0.855 -0.1055 -0.67 0.4115
-0.1315 -1.911 -1.78 1.022 0.8245 -1.845 -1.059 -1.086 -0.911 -0.8955 -0.998 -0.853 -0.106 -0.6765 0.4105
-0.133 -1.907 -1.774 1.02 0.821 -1.841 -1.062 -1.093 -0.9165 -0.902 -1.002 -0.8535 -0.106 -0.666 0.4115
-0.128 -1.904 -1.776 1.016 0.8245 -1.84 -1.065 -1.097 -0.9195 -0.907 -1.004 -0.8535 -0.1025 -0.655 0.4125
-0.134 -1.911 -1.776 1.022 0.8215 -1.843 -1.067 -1.099 -0.9225 -0.9065 -1.008 -0.86 -0.1035 -0.663 0.4125
-0.134 -1.908 -1.774 1.021 0.8205 -1.841 -1.069 -1.103 -0.9245 -0.904 -1.006 -0.86 -0.1005 -0.6565 0.412
-0.1305 -1.902 -1.771 1.016 0.8205 -1.837 -1.068 -1.101 -0.9235 -0.9025 -1.006 -0.8565 -0.095 -0.653 0.4145
-0.1415 -1.905 -1.764 1.024 0.8115 -1.835 -1.071 -1.107 -0.9255 -0.903 -1.006 -0.861 -0.0975 -0.658 0.417
-0.1395 -1.904 -1.764 1.022 0.813 -1.835 -1.071 -1.105 -0.923 -0.8985 -0.9985 -0.856 -0.093 -0.646 0.4155
-0.1385 -1.907 -1.768 1.023 0.815 -1.837 -1.069 -1.102 -0.918 -0.897 -0.994 -0.8495 -0.0885 -0.651 0.412
-0.1435 -1.905 -1.762 1.025 0.8095 -1.834 -1.07 -1.109 -0.9185 -0.8985 -0.994 -0.851 -0.0885 -0.6565 0.4115
-0.155 -1.917 -1.762 1.036 0.8035 -1.839 -1.077 -1.114 -0.9225 -0.9005 -0.9945 -0.849 -0.083 -0.658 0.417
-0.144 -1.915 -1.771 1.03 0.814 -1.843 -1.077 -1.11 -0.919 -0.9 -0.991 -0.8455 -0.079 -0.6695 0.4215
-0.1365 -1.909 -1.772 1.023 0.8185 -1.841 -1.069 -1.103 -0.9145 -0.9 -0.987 -0.8405 -0.0795 -0.67 0.418
-0.152 -1.916 -1.764 1.034 0.8065 -1.84 -1.067 -1.105 -0.917 -0.901 -0.989 -0.8395 -0.0815 -0.6635 0.4155
-0.147 -1.919 -1.772 1.033 0.813 -1.845 -1.067 -1.105 -0.9195 -0.898 -0.989 -0.842 -0.081 -0.668 0.4175
-0.146 -1.921 -1.776 1.034 0.8155 -1.849 -1.069 -1.108 -0.923 -0.898 -0.9885 -0.8435 -0.083 -0.67 0.4175
-0.1395 -1.916 -1.776 1.028 0.819 -1.847 -1.065 -1.105 -0.9215 -0.8955 -0.984 -0.839 -0.083 -0.6705 0.417
-0.14 -1.917 -1.778 1.029 0.819 -1.848 -1.062 -1.103 -0.9215 -0.8965 -0.9845 -0.8345 -0.0815 -0.674 0.4145
-0.1425 -1.917 -1.774 1.03 0.816 -1.845 -1.061 -1.105 -0.922 -0.8975 -0.9845 -0.8335 -0.0825 -0.674 0.4155
-0.138 -1.921 -1.783 1.03 0.823 -1.852 -1.069 -1.105 -0.922 -0.896 -0.981 -0.833 -0.0825 -0.6755 0.4205
-0.1435 -1.925 -1.782 1.034 0.8195 -1.853 -1.07 -1.108 -0.924 -0.9015 -0.9835 -0.838 -0.086 -0.6695 0.4225
-0.1375 -1.919 -1.78 1.028 0.822 -1.849 -1.069 -1.111 -0.924 -0.904 -0.987 -0.839 -0.0865 -0.6695 0.4225
-0.1355 -1.917 -1.782 1.027 0.8235 -1.85 -1.075 -1.113 -0.924 -0.9015 -0.9895 -0.842 -0.087 -0.667 0.421
-0.137 -1.917 -1.78 1.028 0.8215 -1.849 -1.077 -1.112 -0.9255 -0.8985 -0.989 -0.8455 -0.0905 -0.667 0.4215
-0.1335 -1.91 -1.776 1.022 0.8215 -1.843 -1.079 -1.111 -0.924 -0.895 -0.986 -0.844 -0.0875 -0.668 0.4205
-0.1345 -1.905 -1.771 1.02 0.8185 -1.839 -1.079 -1.113 -0.9235 -0.895 -0.9865 -0.846 -0.0885 -0.66 0.419
-0.127 -1.899 -1.772 1.013 0.8225 -1.835 -1.085 -1.123 -0.9325 -0.9035 -0.994 -0.8505 -0.092 -0.662 0.42
-0.126 -1.897 -1.772 1.012 0.8235 -1.835 -1.092 -1.125 -0.932 -0.908 -0.998 -0.8515 -0.0895 -0.658 0.4205
-0.1345 -1.901 -1.767 1.018 0.8165 -1.834 -1.086 -1.121 -0.926 -0.903 -0.9965 -0.8515 -0.092 -0.6595 0.4195
-0.136 -1.895 -1.76 1.016 0.812 -1.827 -1.085 -1.123 -0.9255 -0.899 -0.9975 -0.852 -0.093 -0.659 0.4155
-0.1415 -1.901 -1.759 1.021 0.809 -1.83 -1.085 -1.121 -0.9215 -0.894 -0.997 -0.853 -0.0915 -0.658 0.4145
-0.141 -1.905 -1.766 1.024 0.8125 -1.835 -1.083 -1.122 -0.922 -0.891 -0.995 -0.8495 -0.089 -0.665 0.4185
-0.1395 -1.913 -1.773 1.026 0.817 -1.843 -1.085 -1.123 -0.9265 -0.894 -0.996 -0.85 -0.0895 -0.671 0.4225
-0.1415 -1.92 -1.778 1.03 0.819 -1.849 -1.087 -1.121 -0.93 -0.8975 -0.9975 -0.852 -0.091 -0.673 0.4285
-0.145 -1.918 -1.774 1.032 0.8145 -1.846 -1.083 -1.121 -0.932 -0.8995 -0.9965 -0.848 -0.089 -0.6665 0.4285
-0.1455 -1.921 -1.776 1.034 0.816 -1.849 -1.079 -1.119 -0.9305 -0.8975 -0.9955 -0.845 -0.087 -0.673 0.428
-0.134 -1.923 -1.788 1.028 0.8275 -1.855 -1.082 -1.119 -0.931 -0.8985 -0.995 -0.8425 -0.083 -0.6835 0.4315
-0.134 -1.917 -1.784 1.026 0.825 -1.851 -1.076 -1.116 -0.927 -0.8965 -0.9935 -0.8445 -0.084 -0.675 0.4275
-0.139 -1.915 -1.776 1.028 0.8195 -1.846 -1.079 -1.118 -0.927 -0.897 -0.991 -0.845 -0.086 -0.676 0.4275
-0.142 -1.925 -1.783 1.034 0.821 -1.854 -1.086 -1.125 -0.935 -0.9045 -0.9945 -0.8485 -0.0885 -0.684 0.429
-0.14 -1.921 -1.781 1.03 0.8205 -1.851 -1.085 -1.125 -0.937 -0.905 -0.9915 -0.8475 -0.0875 -0.6705 0.424
-0.132 -1.905 -1.772 1.018 0.8205 -1.839 -1.088 -1.125 -0.938 -0.9065 -0.988 -0.846 -0.086 -0.6745 0.422
-0.1295 -1.898 -1.768 1.014 0.82 -1.833 -1.087 -1.127 -0.9405 -0.908 -0.989 -0.849 -0.0865 -0.6715 0.422
-0.1335 -1.898 -1.764 1.016 0.816 -1.831 -1.097 -1.133 -0.9405 -0.9065 -0.986 -0.8475 -0.085 -0.662 0.422
-0.1295 -1.893 -1.764 1.012 0.8175 -1.829 -1.103 -1.134 -0.941 -0.905 -0.9865 -0.8485 -0.085 -0.665 0.422
-0.1165 -1.879 -1.762 0.998 0.823 -1.821 -1.103 -1.134 -0.9405 -0.9025 -0.9865 -0.8455 -0.084 -0.6515 0.4235
-0.124 -1.876 -1.752 1 0.8145 -1.814 -1.105 -1.139 -0.9435 -0.9025 -0.992 -0.8495 -0.09 -0.648 0.4225
-0.1285 -1.881 -1.753 1.005 0.8125 -1.817 -1.109 -1.141 -0.945 -0.903 -0.9945 -0.852 -0.0925 -0.6515 0.4225
-0.12 -1.881 -1.76 1 0.8205 -1.821 -1.107 -1.137 -0.94 -0.8975 -0.9905 -0.847 -0.089 -0.6525 0.4225
-0.1275 -1.884 -1.756 1.006 0.8145 -1.821 -1.107 -1.137 -0.9395 -0.895 -0.9905 -0.8485 -0.088 -0.653 0.4225
-0.133 -1.891 -1.758 1.012 0.813 -1.825 -1.109 -1.137 -0.9425 -0.901 -0.992 -0.8465 -0.087 -0.6545 0.425
-0.1355 -1.899 -1.764 1.018 0.8145 -1.831 -1.101 -1.138 -0.944 -0.91 -0.998 -0.8485 -0.0905 -0.6565 0.4225
-0.137 -1.903 -1.766 1.02 0.8145 -1.834 -1.102 -1.138 -0.946 -0.9135 -1.002 -0.85 -0.092 -0.6685 0.422
-0.129 -1.899 -1.77 1.014 0.821 -1.835 -1.107 -1.137 -0.946 -0.9075 -1 -0.848 -0.091 -0.675 0.4265
-0.132 -1.902 -1.77 1.017 0.8195 -1.836 -1.107 -1.137 -0.9395 -0.898 -0.997 -0.851 -0.0905 -0.671 0.425
-0.141 -1.905 -1.765 1.024 0.812 -1.835 -1.098 -1.131 -0.9325 -0.888 -0.994 -0.853 -0.0945 -0.675 0.417
-0.131 -1.903 -1.772 1.018 0.821 -1.838 -1.097 -1.132 -0.9315 -0.8825 -0.99 -0.85 -0.0935 -0.676 0.4195
-0.123 -1.897 -1.774 1.01 0.826 -1.836 -1.103 -1.133 -0.9345 -0.8835 -0.987 -0.847 -0.089 -0.6765 0.4255
-0.1295 -1.895 -1.766 1.012 0.818 -1.831 -1.103 -1.135 -0.9375 -0.8885 -0.9865 -0.8455 -0.0905 -0.671 0.4255
-0.128 -1.901 -1.774 1.015 0.823 -1.837 -1.107 -1.138 -0.942 -0.896 -0.9875 -0.845 -0.0905 -0.667 0.4295
-0.121 -1.903 -1.782 1.012 0.831 -1.843 -1.107 -1.136 -0.943 -0.8985 -0.988 -0.846 -0.09 -0.669 0.4355
-0.1155 -1.898 -1.782 1.007 0.8335 -1.84 -1.104 -1.133 -0.939 -0.902 -0.9885 -0.845 -0.089 -0.667 0.4325
-0.117 -1.899 -1.782 1.008 0.8325 -1.84 -1.104 -1.135 -0.9415 -0.9055 -0.992 -0.8475 -0.0875 -0.6675 0.432
-0.125 -1.903 -1.778 1.014 0.8265 -1.84 -1.11 -1.139 -0.947 -0.91 -0.995 -0.847 -0.0875 -0.666 0.4365
-0.1255 -1.901 -1.776 1.014 0.825 -1.838 -1.107 -1.137 -0.948 -0.913 -0.992 -0.843 -0.0835 -0.6665 0.432
-0.124 -1.898 -1.774 1.011 0.8255 -1.836 -1.11 -1.137 -0.946 -0.9085 -0.9885 -0.8435 -0.081 -0.669 0.4315
-0.12 -1.895 -1.774 1.007 0.8275 -1.835 -1.115 -1.142 -0.9485 -0.9075 -0.9875 -0.843 -0.0785 -0.667 0.436
-0.113 -1.893 -1.78 1.003 0.8335 -1.835 -1.116 -1.143 -0.947 -0.9045 -0.983 -0.838 -0.0725 -0.674 0.435
-0.1255 -1.901 -1.776 1.014 0.8255 -1.839 -1.119 -1.145 -0.9435 -0.8975 -0.98 -0.8355 -0.071 -0.6605 0.4305
-0.1255 -1.897 -1.771 1.011 0.823 -1.833 -1.115 -1.146 -0.9415 -0.894 -0.9825 -0.837 -0.07 -0.6555 0.431
-0.114 -1.887 -1.774 1.001 0.83 -1.831 -1.112 -1.141 -0.9365 -0.8875 -0.9815 -0.834 -0.068 -0.6765 0.4325
-0.1195 -1.897 -1.778 1.008 0.8295 -1.837 -1.109 -1.141 -0.9385 -0.889 -0.982 -0.831 -0.0695 -0.6765 0.4315
-0.1225 -1.901 -1.778 1.012 0.828 -1.839 -1.107 -1.141 -0.94 -0.8915 -0.9825 -0.8315 -0.0705 -0.6655 0.4325
-0.115 -1.899 -1.784 1.008 0.835 -1.842 -1.109 -1.135 -0.9375 -0.887 -0.9785 -0.8275 -0.0655 -0.6685 0.4325
-0.12 -1.903 -1.784 1.012 0.8325 -1.844 -1.11 -1.14 -0.9425 -0.8905 -0.9815 -0.8285 -0.065 -0.67 0.4335
-0.1245 -1.903 -1.778 1.014 0.827 -1.841 -1.106 -1.137 -0.94 -0.8845 -0.9765 -0.8265 -0.064 -0.6725 0.4335
-0.12 -1.902 -1.782 1.011 0.831 -1.841 -1.105 -1.137 -0.94 -0.8855 -0.973 -0.824 -0.062 -0.676 0.4325
-0.1225 -1.901 -1.78 1.012 0.829 -1.841 -1.107 -1.141 -0.9485 -0.898 -0.9795 -0.829 -0.0665 -0.676 0.434
-0.123 -1.903 -1.78 1.014 0.8285 -1.841 -1.113 -1.142 -0.95 -0.9035 -0.981 -0.8285 -0.064 -0.682 0.4385
-0.126 -1.909 -1.784 1.018 0.829 -1.847 -1.112 -1.14 -0.9465 -0.901 -0.9805 -0.827 -0.0625 -0.676 0.4355
-0.118 -1.899 -1.78 1.008 0.8315 -1.839 -1.106 -1.131 -0.938 -0.891 -0.9745 -0.826 -0.0625 -0.671 0.4335
-0.1195 -1.894 -1.775 1.007 0.828 -1.835 -1.102 -1.135 -0.9395 -0.8905 -0.9745 -0.829 -0.0635 -0.6705 0.4315
-0.12 -1.895 -1.776 1.008 0.828 -1.835 -1.109 -1.144 -0.9455 -0.897 -0.979 -0.8345 -0.0645 -0.6715 0.4335
-0.112 -1.888 -1.776 1 0.8325 -1.832 -1.112 -1.142 -0.9455 -0.902 -0.9815 -0.835 -0.0615 -0.6695 0.434
-0.1215 -1.891 -1.768 1.006 0.8235 -1.829 -1.107 -1.145 -0.9445 -0.8985 -0.9825 -0.836 -0.0645 -0.6645 0.4275
-0.1235 -1.885 -1.762 1.004 0.8195 -1.824 -1.111 -1.147 -0.9435 -0.891 -0.981 -0.8385 -0.065 -0.665 0.4285
-0.1195 -1.877 -1.758 0.9985 0.82 -1.818 -1.113 -1.145 -0.9395 -0.883 -0.9805 -0.841 -0.0625 -0.658 0.4245
-0.1145 -1.876 -1.762 0.9955 0.824 -1.819 -1.115 -1.147 -0.938 -0.8785 -0.981 -0.8425 -0.063 -0.6585 0.4265
-0.118 -1.881 -1.763 0.9995 0.8225 -1.822 -1.117 -1.148 -0.938 -0.878 -0.9815 -0.842 -0.0625 -0.66 0.4285
-0.1235 -1.875 -1.751 0.999 0.814 -1.812 -1.112 -1.145 -0.9305 -0.873 -0.978 -0.838 -0.0625 -0.648 0.4215
-0.114 -1.865 -1.752 0.99 0.819 -1.808 -1.109 -1.145 -0.926 -0.8695 -0.973 -0.8315 -0.061 -0.647 0.4195
-0.1105 -1.865 -1.755 0.9885 0.8225 -1.81 -1.107 -1.143 -0.9235 -0.8655 -0.97 -0.828 -0.0625 -0.641 0.4165
-0.1105 -1.859 -1.749 0.9855 0.8195 -1.804 -1.101 -1.131 -0.914 -0.8595 -0.9645 -0.823 -0.0655 -0.6425 0.4115
-0.116 -1.863 -1.748 0.99 0.816 -1.806 -1.097 -1.129 -0.9165 -0.869 -0.964 -0.823 -0.07 -0.6435 0.41
-0.1205 -1.867 -1.746 0.9935 0.813 -1.806 -1.095 -1.133 -0.9275 -0.8865 -0.9705 -0.8295 -0.0765 -0.6455 0.4125
-0.1165 -1.867 -1.75 0.992 0.817 -1.808 -1.093 -1.129 -0.9245 -0.8895 -0.971 -0.827 -0.075 -0.647 0.411
-0.113 -1.869 -1.756 0.9915 0.8215 -1.813 -1.092 -1.124 -0.9195 -0.8855 -0.9685 -0.8245 -0.071 -0.6415 0.409
-0.1115 -1.865 -1.753 0.988 0.821 -1.809 -1.089 -1.12 -0.916 -0.8865 -0.968 -0.8265 -0.0715 -0.6495 0.411
-0.117 -1.863 -1.746 0.9905 0.8145 -1.804 -1.079 -1.113 -0.9125 -0.8845 -0.9665 -0.827 -0.072 -0.6395 0.4015
-0.111 -1.858 -1.747 0.985 0.8185 -1.802 -1.079 -1.112 -0.9095 -0.8785 -0.9615 -0.825 -0.073 -0.6385 0.399
-0.1055 -1.853 -1.748 0.9795 0.821 -1.8 -1.083 -1.115 -0.91 -0.8805 -0.961 -0.8255 -0.072 -0.6355 0.3985
-0.1035 -1.844 -1.74 0.974 0.819 -1.792 -1.083 -1.119 -0.912 -0.88 -0.959 -0.8255 -0.0715 -0.631 0.3975
-0.099 -1.831 -1.732 0.9655 0.817 -1.782 -1.085 -1.115 -0.9055 -0.871 -0.9535 -0.8225 -0.0715 -0.628 0.3955
-0.1 -1.827 -1.728 0.964 0.8135 -1.778 -1.085 -1.111 -0.9025 -0.866 -0.952 -0.821 -0.0715 -0.6115 0.3865
-0.0955 -1.82 -1.724 0.958 0.8145 -1.772 -1.083 -1.113 -0.902 -0.865 -0.95 -0.821 -0.074 -0.607 0.38
-0.094 -1.812 -1.718 0.953 0.812 -1.765 -1.079 -1.112 -0.9005 -0.868 -0.9525 -0.824 -0.076 -0.598 0.375
-0.0895 -1.8 -1.71 0.945 0.8105 -1.756 -1.091 -1.119 -0.9065 -0.871 -0.957 -0.824 -0.075 -0.588 0.384
-0.091 -1.799 -1.708 0.945 0.809 -1.754 -1.093 -1.119 -0.907 -0.87 -0.9545 -0.818 -0.0745 -0.598 0.385
-0.104 -1.808 -1.704 0.9565 0.8005 -1.756 -1.089 -1.12 -0.91 -0.8745 -0.9565 -0.819 -0.077 -0.6 0.378
-0.0955 -1.8 -1.704 0.9475 0.8045 -1.752 -1.093 -1.121 -0.9125 -0.876 -0.9595 -0.819 -0.072 -0.585 0.387
-0.0885 -1.798 -1.709 0.943 0.8105 -1.753 -1.092 -1.119 -0.913 -0.874 -0.959 -0.818 -0.07 -0.594 0.3925
-0.1015 -1.815 -1.714 0.959 0.8065 -1.765 -1.087 -1.119 -0.9155 -0.875 -0.964 -0.822 -0.0735 -0.601 0.393
-0.1025 -1.825 -1.722 0.964 0.81 -1.774 -1.083 -1.117 -0.9115 -0.872 -0.9665 -0.822 -0.072 -0.606 0.392
-0.0985 -1.825 -1.728 0.9625 0.8145 -1.776 -1.083 -1.114 -0.905 -0.863 -0.9635 -0.819 -0.068 -0.621 0.39
-0.096 -1.825 -1.729 0.9605 0.817 -1.777 -1.075 -1.103 -0.893 -0.854 -0.96 -0.816 -0.0655 -0.626 0.387
-0.093 -1.827 -1.734 0.9605 0.8205 -1.78 -1.071 -1.098 -0.8875 -0.8475 -0.9575 -0.8135 -0.062 -0.6265 0.3815
-0.091 -1.831 -1.74 0.9615 0.825 -1.786 -1.075 -1.096 -0.8855 -0.8425 -0.954 -0.8115 -0.0555 -0.6195 0.381
-0.084 -1.823 -1.739 0.954 0.828 -1.781 -1.072 -1.095 -0.8815 -0.8385 -0.9485 -0.8095 -0.0535 -0.6195 0.3825
-0.087 -1.823 -1.736 0.955 0.8245 -1.779 -1.075 -1.097 -0.8855 -0.837 -0.947 -0.8085 -0.0535 -0.6325 0.3845
-0.0825 -1.823 -1.741 0.9535 0.8295 -1.782 -1.083 -1.101 -0.892 -0.837 -0.9435 -0.81 -0.055 -0.632 0.382
-0.081 -1.817 -1.736 0.949 0.8275 -1.776 -1.085 -1.102 -0.8915 -0.837 -0.941 -0.81 -0.0585 -0.62 0.3795
-0.0795 -1.812 -1.732 0.9455 0.8265 -1.772 -1.087 -1.097 -0.8885 -0.8355 -0.938 -0.8065 -0.053 -0.6075 0.3775
-0.064 -1.804 -1.74 0.9345 0.8385 -1.772 -1.091 -1.092 -0.885 -0.835 -0.9355 -0.806 -0.0455 -0.6055 0.3755
-0.0785 -1.812 -1.733 0.9455 0.8275 -1.772 -1.089 -1.09 -0.881 -0.8355 -0.94 -0.8135 -0.0515 -0.613 0.371
-0.078 -1.813 -1.735 0.9455 0.829 -1.774 -1.089 -1.092 -0.8795 -0.8355 -0.941 -0.8155 -0.0515 -0.62 0.372
-0.07 -1.808 -1.738 0.939 0.8345 -1.773 -1.097 -1.094 -0.8785 -0.8355 -0.9425 -0.818 -0.048 -0.6155 0.3775
-0.0805 -1.81 -1.729 0.945 0.8245 -1.769 -1.099 -1.099 -0.881 -0.835 -0.947 -0.823 -0.046 -0.6055 0.378
-0.082 -1.818 -1.736 0.9505 0.827 -1.777 -1.105 -1.107 -0.887 -0.841 -0.9505 -0.824 -0.045 -0.6145 0.3875
-0.0745 -1.824 -1.75 0.9495 0.838 -1.787 -1.121 -1.115 -0.898 -0.852 -0.9585 -0.827 -0.045 -0.631 0.3995
-0.0715 -1.819 -1.748 0.9455 0.8385 -1.784 -1.121 -1.116 -0.9005 -0.8505 -0.9605 -0.825 -0.043 -0.629 0.4005
-0.077 -1.817 -1.74 0.9475 0.8315 -1.778 -1.117 -1.113 -0.8975 -0.8435 -0.954 -0.819 -0.0435 -0.62 0.3955
-0.069 -1.812 -1.743 0.941 0.837 -1.778 -1.127 -1.119 -0.9045 -0.845 -0.953 -0.814 -0.0425 -0.6155 0.3995
-0.0785 -1.82 -1.742 0.95 0.8315 -1.781 -1.144 -1.133 -0.9155 -0.8535 -0.9545 -0.8125 -0.0445 -0.611 0.41
-0.081 -1.819 -1.738 0.95 0.8285 -1.778 -1.151 -1.14 -0.9185 -0.8585 -0.9545 -0.809 -0.0485 -0.611 0.4155
-0.0745 -1.81 -1.736 0.943 0.831 -1.774 -1.159 -1.148 -0.924 -0.8655 -0.954 -0.8015 -0.0455 -0.6115 0.4195
-0.084 -1.82 -1.736 0.9525 0.826 -1.778 -1.163 -1.159 -0.928 -0.8705 -0.955 -0.7995 -0.046 -0.611 0.4235
-0.0765 -1.819 -1.742 0.948 0.833 -1.78 -1.161 -1.156 -0.927 -0.8725 -0.9565 -0.7955 -0.045 -0.6145 0.426
-0.075 -1.813 -1.738 0.9445 0.832 -1.776 -1.163 -1.156 -0.929 -0.876 -0.961 -0.7945 -0.045 -0.611 0.429
-0.076 -1.807 -1.731 0.9415 0.828 -1.769 -1.165 -1.156 -0.9265 -0.8715 -0.9615 -0.7955 -0.045 -0.5995 0.4285
-0.0685 -1.805 -1.737 0.937 0.8345 -1.771 -1.173 -1.161 -0.9315 -0.873 -0.962 -0.7945 -0.043 -0.6065 0.4355
-0.063 -1.803 -1.74 0.9335 0.8385 -1.772 -1.179 -1.166 -0.9365 -0.876 -0.959 -0.7895 -0.039 -0.6125 0.442
-0.0555 -1.788 -1.732 0.922 0.839 -1.76 -1.175 -1.165 -0.935 -0.871 -0.95 -0.7835 -0.037 -0.591 0.4365
-0.051 -1.78 -1.729 0.9155 0.839 -1.754 -1.179 -1.171 -0.938 -0.872 -0.9465 -0.7815 -0.035 -0.5885 0.44
-0.0465 -1.78 -1.732 0.9135 0.8435 -1.756 -1.19 -1.173 -0.937 -0.873 -0.946 -0.784 -0.032 -0.5915 0.444
-0.046 -1.778 -1.732 0.9125 0.844 -1.756 -1.194 -1.175 -0.9385 -0.8715 -0.9455 -0.789 -0.032 -0.5875 0.443
-0.0505 -1.786 -1.736 0.9185 0.8435 -1.762 -1.2 -1.185 -0.945 -0.8785 -0.948 -0.7955 -0.0315 -0.606 0.451
-0.053 -1.791 -1.738 0.9225 0.8425 -1.764 -1.2 -1.187 -0.9495 -0.8865 -0.953 -0.801 -0.0335 -0.5965 0.455
-0.0605 -1.796 -1.736 0.9285 0.8375 -1.766 -1.194 -1.189 -0.958 -0.898 -0.9605 -0.8055 -0.0385 -0.5875 0.4555
-0.0705 -1.802 -1.732 0.9365 0.831 -1.767 -1.181 -1.185 -0.9575 -0.904 -0.961 -0.81 -0.041 -0.6025 0.452
-0.0665 -1.797 -1.73 0.9315 0.8325 -1.764 -1.183 -1.178 -0.9535 -0.9005 -0.958 -0.8125 -0.0395 -0.6045 0.455
-0.07 -1.804 -1.734 0.937 0.832 -1.768 -1.189 -1.185 -0.959 -0.902 -0.9635 -0.8185 -0.0395 -0.603 0.4615
-0.0705 -1.8 -1.73 0.9355 0.83 -1.765 -1.183 -1.185 -0.9555 -0.895 -0.9595 -0.8175 -0.0415 -0.588 0.4555
-0.0615 -1.796 -1.735 0.929 0.837 -1.766 -1.19 -1.183 -0.956 -0.89 -0.9545 -0.815 -0.0365 -0.5985 0.463
-0.066 -1.806 -1.74 0.936 0.837 -1.773 -1.192 -1.185 -0.958 -0.891 -0.958 -0.8215 -0.037 -0.609 0.4705
-0.0635 -1.812 -1.748 0.938 0.8425 -1.78 -1.189 -1.18 -0.9525 -0.889 -0.958 -0.822 -0.035 -0.61 0.47
-0.052 -1.823 -1.772 0.9375 0.86 -1.797 -1.185 -1.169 -0.947 -0.885 -0.957 -0.823 -0.0285 -0.6355 0.4715
-0.0475 -1.838 -1.79 0.9425 0.8715 -1.814 -1.181 -1.163 -0.941 -0.881 -0.962 -0.8285 -0.027 -0.65 0.471
-0.048 -1.845 -1.796 0.9465 0.874 -1.82 -1.181 -1.161 -0.9405 -0.882 -0.965 -0.8315 -0.0255 -0.6495 0.4675
-0.051 -1.85 -1.799 0.9505 0.874 -1.825 -1.173 -1.159 -0.94 -0.882 -0.9655 -0.831 -0.0255 -0.6505 0.4605
-0.0415 -1.853 -1.811 0.9475 0.885 -1.832 -1.173 -1.157 -0.939 -0.8805 -0.962 -0.8295 -0.0235 -0.667 0.459
-0.052 -1.857 -1.804 0.9545 0.8765 -1.831 -1.175 -1.155 -0.9375 -0.8745 -0.958 -0.828 -0.021 -0.6695 0.456
-0.05 -1.856 -1.806 0.9535 0.878 -1.831 -1.176 -1.155 -0.936 -0.8715 -0.9565 -0.8255 -0.013 -0.668 0.451
-0.0345 -1.851 -1.817 0.9435 0.891 -1.834 -1.179 -1.159 -0.9455 -0.8775 -0.9585 -0.8235 -0.007 -0.672 0.457
-0.04 -1.855 -1.814 0.9475 0.887 -1.835 -1.181 -1.164 -0.954 -0.8805 -0.9605 -0.8205 -0.005 -0.6605 0.4595
-0.0285 -1.849 -1.819 0.9385 0.896 -1.834 -1.183 -1.161 -0.9545 -0.879 -0.9535 -0.8115 0.005 -0.6635 0.4595
-0.0295 -1.849 -1.819 0.9395 0.8955 -1.835 -1.187 -1.161 -0.9585 -0.8835 -0.954 -0.808 0.0055 -0.6635 0.4605
-0.0265 -1.843 -1.816 0.935 0.895 -1.829 -1.194 -1.164 -0.96 -0.8835 -0.955 -0.809 0.0045 -0.6595 0.459
-0.022 -1.839 -1.817 0.9305 0.898 -1.828 -1.192 -1.163 -0.957 -0.881 -0.952 -0.8095 0.0035 -0.6645 0.4555
-0.034 -1.851 -1.817 0.943 0.892 -1.835 -1.192 -1.165 -0.958 -0.8835 -0.9565 -0.8155 -0.003 -0.6645 0.4605
-0.039 -1.858 -1.819 0.949 0.89 -1.839 -1.193 -1.167 -0.958 -0.8835 -0.9625 -0.8235 -0.005 -0.6655 0.465
-0.0355 -1.858 -1.823 0.947 0.894 -1.841 -1.187 -1.169 -0.9575 -0.88 -0.962 -0.823 -0.007 -0.663 0.4585
-0.0445 -1.865 -1.821 0.9555 0.8885 -1.843 -1.187 -1.173 -0.96 -0.8785 -0.9625 -0.824 -0.0115 -0.656 0.462
-0.0515 -1.875 -1.823 0.9635 0.886 -1.849 -1.188 -1.175 -0.9595 -0.8755 -0.965 -0.8315 -0.015 -0.6655 0.462
-0.0435 -1.873 -1.829 0.9585 0.893 -1.851 -1.187 -1.172 -0.951 -0.864 -0.961 -0.8305 -0.0135 -0.6815 0.4595
-0.041 -1.876 -1.835 0.959 0.8975 -1.856 -1.187 -1.167 -0.945 -0.858 -0.957 -0.828 -0.01 -0.676 0.46
-0.0405 -1.883 -1.842 0.9615 0.901 -1.862 -1.183 -1.163 -0.946 -0.8655 -0.956 -0.8255 -0.0105 -0.687 0.4575
-0.045 -1.882 -1.837 0.964 0.8965 -1.859 -1.175 -1.16 -0.9465 -0.877 -0.9625 -0.8285 -0.019 -0.692 0.4545
-0.0425 -1.869 -1.827 0.956 0.892 -1.847 -1.167 -1.154 -0.9415 -0.8825 -0.9635 -0.8275 -0.023 -0.678 0.445
-0.0585 -1.871 -1.812 0.965 0.877 -1.842 -1.159 -1.153 -0.942 -0.89 -0.965 -0.8285 -0.0305 -0.675 0.4375
-0.073 -1.883 -1.81 0.9785 0.869 -1.847 -1.157 -1.157 -0.944 -0.896 -0.97 -0.8285 -0.036 -0.67 0.4395
-0.07 -1.875 -1.805 0.973 0.8675 -1.84 -1.154 -1.151 -0.935 -0.8875 -0.9645 -0.822 -0.0295 -0.6715 0.434
-0.077 -1.871 -1.794 0.974 0.8585 -1.832 -1.148 -1.145 -0.929 -0.882 -0.963 -0.821 -0.027 -0.665 0.4265
-0.075 -1.873 -1.798 0.974 0.8615 -1.835 -1.146 -1.147 -0.936 -0.8935 -0.97 -0.8225 -0.0275 -0.665 0.43
-0.0835 -1.882 -1.798 0.983 0.8575 -1.84 -1.142 -1.151 -0.9485 -0.917 -0.9845 -0.8335 -0.037 -0.672 0.433
-0.0965 -1.893 -1.796 0.9945 0.85 -1.844 -1.145 -1.157 -0.9565 -0.928 -0.9945 -0.8405 -0.044 -0.6725 0.4355
-0.0925 -1.891 -1.798 0.9915 0.853 -1.844 -1.147 -1.159 -0.958 -0.9215 -0.995 -0.8415 -0.0435 -0.6785 0.435
-0.094 -1.889 -1.795 0.9915 0.8505 -1.842 -1.147 -1.167 -0.9655 -0.927 -1.002 -0.848 -0.05 -0.6745 0.441
-0.1045 -1.899 -1.794 1.002 0.845 -1.847 -1.15 -1.18 -0.98 -0.9385 -1.014 -0.856 -0.058 -0.683 0.4465
-0.108 -1.909 -1.802 1.009 0.847 -1.855 -1.156 -1.187 -0.9875 -0.944 -1.02 -0.862 -0.063 -0.691 0.4485
-0.1115 -1.909 -1.798 1.01 0.8435 -1.853 -1.161 -1.19 -0.991 -0.9485 -1.028 -0.8675 -0.0675 -0.6905 0.4535
-0.113 -1.911 -1.798 1.012 0.8425 -1.854 -1.157 -1.187 -0.992 -0.949 -1.032 -0.8705 -0.0715 -0.6975 0.45
-0.1145 -1.914 -1.799 1.014 0.8425 -1.857 -1.145 -1.182 -0.986 -0.945 -1.03 -0.865 -0.075 -0.684 0.4425
-0.1205 -1.919 -1.799 1.02 0.8395 -1.859 -1.145 -1.181 -0.9845 -0.9425 -1.027 -0.8575 -0.073 -0.695 0.4475
-0.11 -1.919 -1.81 1.015 0.85 -1.865 -1.153 -1.18 -0.9865 -0.9445 -1.026 -0.853 -0.068 -0.713 0.4535
-0.105 -1.919 -1.815 1.012 0.855 -1.867 -1.145 -1.175 -0.981 -0.9425 -1.022 -0.852 -0.0675 -0.705 0.452
-0.113 -1.931 -1.818 1.022 0.853 -1.875 -1.147 -1.174 -0.9795 -0.94 -1.018 -0.85 -0.068 -0.704 0.451
-0.1195 -1.938 -1.819 1.029 0.8495 -1.879 -1.142 -1.173 -0.978 -0.9335 -1.016 -0.8475 -0.0675 -0.7055 0.446
-0.1125 -1.933 -1.821 1.023 0.854 -1.877 -1.139 -1.169 -0.973 -0.9245 -1.013 -0.8485 -0.067 -0.7145 0.4455
-0.111 -1.929 -1.818 1.02 0.8535 -1.873 -1.139 -1.168 -0.966 -0.9145 -1.006 -0.8475 -0.066 -0.721 0.438
-0.112 -1.933 -1.821 1.023 0.855 -1.877 -1.137 -1.165 -0.958 -0.905 -0.9985 -0.847 -0.062 -0.716 0.4345
-0.1055 -1.929 -1.823 1.018 0.8595 -1.877 -1.145 -1.167 -0.959 -0.9065 -0.9965 -0.8495 -0.0595 -0.709 0.4375
-0.11 -1.923 -1.813 1.016 0.852 -1.868 -1.147 -1.173 -0.962 -0.91 -0.9965 -0.8515 -0.0595 -0.6985 0.436
-0.11 -1.917 -1.806 1.014 0.8485 -1.861 -1.153 -1.177 -0.9625 -0.911 -0.9975 -0.8525 -0.0605 -0.6955 0.4365
-0.1125 -1.917 -1.804 1.016 0.846 -1.861 -1.157 -1.182 -0.965 -0.911 -0.997 -0.853 -0.059 -0.6985 0.437
-0.111 -1.915 -1.804 1.014 0.847 -1.86 -1.159 -1.183 -0.9695 -0.914 -0.997 -0.8555 -0.056 -0.6975 0.4385
-0.1135 -1.913 -1.8 1.014 0.8435 -1.857 -1.155 -1.185 -0.9815 -0.926 -1.001 -0.8575 -0.057 -0.6995 0.44
-0.1165 -1.913 -1.796 1.015 0.84 -1.855 -1.159 -1.189 -0.993 -0.937 -1.006 -0.8625 -0.059 -0.6925 0.4425
-0.1145 -1.909 -1.795 1.012 0.8405 -1.852 -1.157 -1.188 -0.9955 -0.942 -1.01 -0.8655 -0.0615 -0.6915 0.442
-0.1135 -1.915 -1.801 1.014 0.844 -1.857 -1.155 -1.191 -0.995 -0.9415 -1.012 -0.8635 -0.0595 -0.6965 0.447
-0.101 -1.902 -1.801 1.002 0.85 -1.851 -1.156 -1.185 -0.9855 -0.9355 -1.007 -0.8615 -0.0545 -0.6955 0.445
-0.1075 -1.907 -1.799 1.007 0.846 -1.853 -1.152 -1.181 -0.982 -0.933 -1.004 -0.861 -0.056 -0.7035 0.4425
-0.1095 -1.917 -1.808 1.014 0.8495 -1.863 -1.153 -1.183 -0.983 -0.9295 -1.004 -0.8625 -0.054 -0.7045 0.44
-0.1155 -1.921 -1.805 1.018 0.845 -1.863 -1.149 -1.181 -0.98 -0.9235 -1.001 -0.863 -0.054 -0.703 0.4395
-0.133 -1.931 -1.798 1.032 0.833 -1.865 -1.144 -1.179 -0.974 -0.914 -1 -0.868 -0.0595 -0.7055 0.4415
-0.1235 -1.921 -1.798 1.022 0.8375 -1.859 -1.14 -1.171 -0.964 -0.899 -0.9925 -0.8645 -0.058 -0.7085 0.4355
-0.1195 -1.923 -1.803 1.021 0.842 -1.863 -1.139 -1.171 -0.966 -0.899 -0.9905 -0.8635 -0.0565 -0.717 0.4335
-0.1215 -1.932 -1.81 1.026 0.845 -1.871 -1.144 -1.177 -0.9725 -0.9045 -0.993 -0.8655 -0.0545 -0.7175 0.4385
-0.1205 -1.925 -1.804 1.022 0.8425 -1.865 -1.14 -1.171 -0.969 -0.9025 -0.993 -0.8645 -0.055 -0.713 0.437
-0.1225 -1.931 -1.808 1.026 0.8435 -1.869 -1.134 -1.17 -0.9695 -0.909 -1.002 -0.8715 -0.058 -0.72 0.4385
-0.128 -1.947 -1.819 1.038 0.8455 -1.883 -1.14 -1.176 -0.9705 -0.914 -1.014 -0.8775 -0.0605 -0.731 0.4445
-0.121 -1.944 -1.822 1.032 0.851 -1.883 -1.137 -1.17 -0.968 -0.9185 -1.023 -0.884 -0.0625 -0.728 0.4415
-0.111 -1.938 -1.827 1.024 0.858 -1.882 -1.135 -1.167 -0.9765 -0.933 -1.034 -0.892 -0.067 -0.722 0.4445
-0.122 -1.953 -1.831 1.038 0.8545 -1.892 -1.138 -1.179 -0.99 -0.9525 -1.048 -0.906 -0.079 -0.7395 0.4475
-0.1225 -1.958 -1.837 1.041 0.8575 -1.897 -1.136 -1.188 -1.004 -0.9665 -1.059 -0.919 -0.0875 -0.751 0.453
-0.121 -1.952 -1.832 1.037 0.8555 -1.893 -1.133 -1.192 -1.012 -0.9755 -1.068 -0.9225 -0.0945 -0.744 0.454
-0.136 -1.951 -1.815 1.044 0.84 -1.883 -1.125 -1.2 -1.022 -0.9905 -1.077 -0.927 -0.105 -0.7335 0.451
-0.154 -1.952 -1.798 1.054 0.822 -1.875 -1.12 -1.22 -1.039 -1.006 -1.087 -0.933 -0.117 -0.7245 0.453
-0.163 -1.95 -1.786 1.056 0.812 -1.868 -1.126 -1.25 -1.059 -1.019 -1.094 -0.931 -0.121 -0.7285 0.4585
-0.16 -1.935 -1.774 1.048 0.8075 -1.855 -1.139 -1.276 -1.069 -1.012 -1.081 -0.914 -0.109 -0.721 0.4705
-0.1515 -1.909 -1.758 1.03 0.803 -1.833 -1.165 -1.304 -1.069 -0.991 -1.056 -0.887 -0.089 -0.6925 0.4745
-0.159 -1.898 -1.739 1.028 0.7905 -1.819 -1.202 -1.361 -1.103 -0.9925 -1.038 -0.8595 -0.071 -0.67 0.493
-0.153 -1.885 -1.731 1.019 0.7895 -1.808 -1.234 -1.421 -1.14 -0.9945 -1.02 -0.834 -0.0555 -0.6725 0.5245
-0.133 -1.857 -1.724 0.995 0.7955 -1.79 -1.269 -1.476 -1.171 -0.984 -0.992 -0.8045 -0.032 -0.651 0.543
-0.1225 -1.835 -1.712 0.979 0.795 -1.773 -1.309 -1.538 -1.206 -0.974 -0.9595 -0.7695 -0.0025 -0.6235 0.567
-0.1115 -1.805 -1.694 0.9585 0.791 -1.749 -1.341 -1.581 -1.224 -0.9565 -0.9215 -0.7315 0.0275 -0.6075 0.5805
-0.102 -1.765 -1.663 0.9335 0.7805 -1.714 -1.374 -1.623 -1.236 -0.9305 -0.873 -0.6875 0.0595 -0.5735 0.578
-0.0895 -1.719 -1.629 0.9045 0.7705 -1.675 -1.407 -1.671 -1.251 -0.907 -0.8285 -0.638 0.091 -0.533 0.583
-0.0665 -1.669 -1.603 0.868 0.768 -1.635 -1.436 -1.706 -1.264 -0.883 -0.784 -0.5885 0.1255 -0.4985 0.5865
-0.0425 -1.63 -1.587 0.8365 0.7725 -1.609 -1.466 -1.732 -1.276 -0.867 -0.7445 -0.546 0.1625 -0.485 0.596
-0.024 -1.603 -1.578 0.8135 0.777 -1.59 -1.491 -1.754 -1.284 -0.8565 -0.711 -0.506 0.1975 -0.4475 0.602
0.0115 -1.55 -1.562 0.77 0.787 -1.556 -1.528 -1.786 -1.292 -0.837 -0.6685 -0.4575 0.2375 -0.417 0.6095
0.025 -1.526 -1.552 0.751 0.7885 -1.539 -1.558 -1.816 -1.312 -0.8395 -0.6495 -0.429 0.2635 -0.401 0.6215
0.049 -1.516 -1.565 0.7335 0.8075 -1.541 -1.575 -1.829 -1.329 -0.8435 -0.6355 -0.4095 0.289 -0.389 0.6305
0.0845 -1.483 -1.567 0.6995 0.826 -1.525 -1.601 -1.835 -1.333 -0.829 -0.5955 -0.3665 0.332 -0.3685 0.6435
0.095 -1.45 -1.544 0.6775 0.82 -1.496 -1.628 -1.869 -1.35 -0.816 -0.555 -0.318 0.3725 -0.332 0.651
0.1215 -1.401 -1.522 0.64 0.822 -1.462 -1.654 -1.925 -1.375 -0.804 -0.5115 -0.2645 0.414 -0.307 0.66
0.141 -1.347 -1.488 0.603 0.815 -1.417 -1.695 -1.999 -1.411 -0.7845 -0.4565 -0.2035 0.46 -0.2425 0.6715
0.177 -1.264 -1.442 0.544 0.8095 -1.353 -1.756 -2.092 -1.438 -0.74 -0.3755 -0.117 0.5265 -0.1775 0.689
0.216 -1.188 -1.404 0.486 0.81 -1.296 -1.802 -2.155 -1.439 -0.687 -0.2995 -0.0335 0.595 -0.127 0.692
0.253 -1.108 -1.361 0.4275 0.807 -1.234 -1.847 -2.207 -1.429 -0.625 -0.222 0.0475 0.6605 -0.0625 0.683
0.2855 -1.028 -1.314 0.3715 0.8 -1.171 -1.868 -2.252 -1.421 -0.575 -0.1545 0.116 0.7065 0.001 0.6685
0.2905 -0.9925 -1.284 0.351 0.7875 -1.138 -1.87 -2.294 -1.437 -0.5615 -0.123 0.156 0.7265 0.0455 0.656
0.321 -0.9315 -1.253 0.3055 0.787 -1.093 -1.907 -2.349 -1.459 -0.5455 -0.074 0.217 0.766 0.0845 0.6655
0.3475 -0.8685 -1.216 0.2605 0.782 -1.043 -1.938 -2.394 -1.47 -0.519 -0.02 0.2725 0.7995 0.1325 0.669
0.3635 -0.838 -1.202 0.2375 0.7825 -1.02 -1.954 -2.447 -1.508 -0.528 -0.003 0.297 0.809 0.165 0.681
0.3645 -0.8855 -1.25 0.2605 0.8075 -1.068 -1.933 -2.473 -1.562 -0.6075 -0.067 0.2495 0.764 0.1275 0.708
0.32 -0.942 -1.262 0.3115 0.7915 -1.102 -1.89 -2.489 -1.599 -0.685 -0.1415 0.187 0.6925 0.0995 0.7175
0.2675 -1.012 -1.279 0.372 0.7735 -1.145 -1.821 -2.478 -1.621 -0.766 -0.226 0.112 0.618 0.05 0.731
0.22 -1.153 -1.373 0.4665 0.7965 -1.262 -1.743 -2.425 -1.631 -0.854 -0.339 0 0.54 -0.0675 0.762
0.183 -1.221 -1.403 0.5195 0.7935 -1.312 -1.704 -2.39 -1.614 -0.881 -0.3945 -0.06 0.4875 -0.105 0.765
0.1485 -1.263 -1.412 0.5575 0.7805 -1.337 -1.649 -2.355 -1.601 -0.918 -0.459 -0.1265 0.425 -0.125 0.7665
0.0965 -1.296 -1.393 0.6 0.745 -1.345 -1.597 -2.316 -1.575 -0.9385 -0.522 -0.1915 0.362 -0.138 0.751
0.0505 -1.304 -1.353 0.6265 0.7025 -1.329 -1.584 -2.292 -1.548 -0.9345 -0.5515 -0.2255 0.3195 -0.125 0.742
0.0235 -1.329 -1.353 0.653 0.6885 -1.341 -1.585 -2.267 -1.54 -0.9475 -0.5935 -0.2695 0.28 -0.1415 0.7575
0 -1.353 -1.353 0.677 0.677 -1.353 -1.567 -2.224 -1.524 -0.9625 -0.6445 -0.3195 0.2305 -0.1585 0.7505
-0.046 -1.364 -1.319 0.7055 0.6365 -1.341 -1.54 -2.188 -1.512 -0.973 -0.687 -0.3605 0.179 -0.144 0.7325
-0.099 -1.372 -1.273 0.736 0.587 -1.323 -1.524 -2.152 -1.504 -0.9845 -0.7285 -0.402 0.1315 -0.1415 0.712
-0.116 -1.412 -1.296 0.764 0.59 -1.354 -1.52 -2.13 -1.54 -1.05 -0.805 -0.466 0.074 -0.188 0.732
-0.1575 -1.486 -1.329 0.822 0.586 -1.408 -1.506 -2.116 -1.574 -1.121 -0.8945 -0.544 0.0115 -0.244 0.7575
-0.2015 -1.558 -1.356 0.8795 0.5775 -1.457 -1.484 -2.102 -1.609 -1.187 -0.9705 -0.615 -0.044 -0.2955 0.783
-0.2265 -1.633 -1.407 0.93 0.5905 -1.52 -1.466 -2.093 -1.659 -1.258 -1.049 -0.6875 -0.102 -0.3535 0.8235
-0.2495 -1.718 -1.469 0.984 0.61 -1.593 -1.459 -2.062 -1.679 -1.312 -1.124 -0.7645 -0.1535 -0.4365 0.8505
-0.2535 -1.786 -1.533 1.02 0.64 -1.659 -1.448 -2.017 -1.694 -1.355 -1.181 -0.828 -0.194 -0.5135 0.8685
-0.2735 -1.859 -1.585 1.067 0.656 -1.722 -1.442 -1.976 -1.702 -1.391 -1.226 -0.8825 -0.228 -0.5615 0.8795
-0.278 -1.928 -1.65 1.103 0.686 -1.789 -1.434 -1.929 -1.71 -1.436 -1.275 -0.9335 -0.26 -0.6175 0.8955
-0.2855 -1.984 -1.699 1.135 0.707 -1.842 -1.416 -1.887 -1.712 -1.47 -1.319 -0.979 -0.293 -0.669 0.9005
-0.289 -2.022 -1.734 1.156 0.7225 -1.878 -1.432 -1.847 -1.692 -1.476 -1.341 -1.006 -0.3065 -0.7055 0.8995
-0.288 -2.034 -1.748 1.161 0.73 -1.891 -1.448 -1.8 -1.661 -1.464 -1.345 -1.024 -0.313 -0.7285 0.889
-0.291 -2.05 -1.76 1.171 0.735 -1.905 -1.438 -1.764 -1.633 -1.452 -1.351 -1.046 -0.326 -0.7515 0.866
-0.2825 -2.076 -1.794 1.18 0.756 -1.935 -1.431 -1.724 -1.603 -1.44 -1.357 -1.067 -0.33 -0.7805 0.8515
-0.282 -2.079 -1.798 1.181 0.758 -1.938 -1.415 -1.673 -1.56 -1.413 -1.349 -1.075 -0.33 -0.793 0.82
-0.2765 -2.08 -1.804 1.179 0.7635 -1.942 -1.389 -1.615 -1.512 -1.378 -1.334 -1.076 -0.3235 -0.7935 0.7815
-0.2625 -2.083 -1.821 1.173 0.7795 -1.952 -1.363 -1.544 -1.449 -1.337 -1.319 -1.08 -0.3125 -0.807 0.745
-0.254 -2.082 -1.828 1.168 0.7875 -1.955 -1.329 -1.48 -1.389 -1.298 -1.302 -1.079 -0.3035 -0.8145 0.702
-0.2465 -2.071 -1.825 1.159 0.7895 -1.948 -1.308 -1.426 -1.333 -1.255 -1.274 -1.067 -0.288 -0.8025 0.661
-0.2195 -2.041 -1.823 1.131 0.8015 -1.932 -1.279 -1.347 -1.252 -1.191 -1.235 -1.048 -0.267 -0.7905 0.605
-0.2025 -2.021 -1.819 1.112 0.8085 -1.92 -1.237 -1.266 -1.175 -1.132 -1.199 -1.027 -0.2435 -0.7675 0.5485
-0.1795 -1.998 -1.819 1.089 0.8195 -1.908 -1.202 -1.193 -1.099 -1.073 -1.161 -1.002 -0.215 -0.7525 0.504
-0.173 -1.988 -1.815 1.081 0.822 -1.902 -1.156 -1.12 -1.028 -1.018 -1.128 -0.983 -0.1895 -0.75 0.4615
-0.1675 -1.985 -1.818 1.077 0.8255 -1.901 -1.129 -1.073 -0.9845 -0.985 -1.106 -0.9735 -0.1695 -0.75 0.432
-0.139 -1.97 -1.831 1.055 0.846 -1.901 -1.122 -1.044 -0.9505 -0.9585 -1.085 -0.96 -0.153 -0.7495 0.415
-0.1265 -1.96 -1.833 1.044 0.854 -1.897 -1.114 -1.028 -0.9225 -0.941 -1.071 -0.9515 -0.144 -0.745 0.403
-0.129 -1.955 -1.827 1.042 0.849 -1.891 -1.11 -1.021 -0.907 -0.93 -1.061 -0.943 -0.135 -0.7325 0.394
-0.1375 -1.954 -1.816 1.046 0.8395 -1.885 -1.109 -1.02 -0.8975 -0.9265 -1.055 -0.9335 -0.124 -0.728 0.393
-0.1265 -1.945 -1.819 1.036 0.8465 -1.882 -1.108 -1.014 -0.884 -0.9225 -1.048 -0.924 -0.1145 -0.7265 0.3905
-0.1155 -1.934 -1.819 1.024 0.8515 -1.876 -1.099 -1.004 -0.867 -0.908 -1.034 -0.915 -0.1075 -0.722 0.38
-0.119 -1.935 -1.817 1.028 0.849 -1.876 -1.091 -0.9935 -0.857 -0.8995 -1.03 -0.915 -0.103 -0.726 0.374
-0.117 -1.94 -1.823 1.028 0.853 -1.881 -1.082 -0.9785 -0.8455 -0.8895 -1.026 -0.912 -0.0965 -0.731 0.366
-0.102 -1.938 -1.835 1.02 0.867 -1.887 -1.065 -0.9655 -0.832 -0.8795 -1.021 -0.9095 -0.0905 -0.741 0.3605
-0.1005 -1.952 -1.851 1.026 0.876 -1.902 -1.064 -0.9575 -0.8255 -0.87 -1.022 -0.915 -0.0895 -0.754 0.366
-0.095 -1.952 -1.856 1.024 0.881 -1.903 -1.065 -0.9495 -0.814 -0.8535 -1.016 -0.912 -0.084 -0.7475 0.361
-0.0905 -1.946 -1.856 1.018 0.883 -1.901 -1.056 -0.944 -0.8005 -0.843 -1.012 -0.913 -0.0845 -0.744 0.3515
-0.0935 -1.948 -1.855 1.022 0.881 -1.902 -1.057 -0.939 -0.7935 -0.832 -1.006 -0.9135 -0.0815 -0.7485 0.3475
-0.0925 -1.95 -1.858 1.022 0.883 -1.905 -1.06 -0.9365 -0.793 -0.8325 -1.007 -0.914 -0.073 -0.743 0.3495
-0.0915 -1.954 -1.863 1.024 0.886 -1.909 -1.06 -0.9365 -0.798 -0.8455 -1.019 -0.9205 -0.076 -0.7475 0.3525
-0.0825 -1.946 -1.863 1.014 0.891 -1.905 -1.06 -0.924 -0.793 -0.8475 -1.018 -0.916 -0.0715 -0.752 0.351
-0.088 -1.95 -1.861 1.019 0.8875 -1.906 -1.055 -0.919 -0.7945 -0.8595 -1.024 -0.9195 -0.069 -0.7495 0.3535
-0.0845 -1.955 -1.871 1.02 0.893 -1.913 -1.06 -0.9255 -0.8 -0.8685 -1.031 -0.925 -0.0695 -0.748 0.356
-0.0885 -1.956 -1.868 1.023 0.89 -1.912 -1.06 -0.9245 -0.798 -0.8665 -1.034 -0.9245 -0.0685 -0.756 0.3555
-0.109 -1.963 -1.854 1.036 0.8725 -1.909 -1.052 -0.9245 -0.799 -0.8755 -1.04 -0.927 -0.073 -0.753 0.3525
-0.1115 -1.969 -1.857 1.04 0.8735 -1.913 -1.052 -0.9205 -0.795 -0.876 -1.04 -0.9255 -0.0735 -0.7515 0.352
-0.1005 -1.964 -1.864 1.033 0.882 -1.915 -1.048 -0.9115 -0.7835 -0.864 -1.035 -0.9225 -0.0705 -0.75 0.3485
-0.087 -1.962 -1.875 1.025 0.8945 -1.919 -1.052 -0.9055 -0.7745 -0.859 -1.03 -0.917 -0.067 -0.761 0.3485
-0.0905 -1.969 -1.879 1.03 0.8945 -1.924 -1.048 -0.907 -0.7735 -0.862 -1.034 -0.919 -0.069 -0.7695 0.3505
-0.094 -1.972 -1.878 1.034 0.892 -1.925 -1.044 -0.905 -0.769 -0.8545 -1.034 -0.92 -0.0695 -0.7615 0.3445
-0.0875 -1.97 -1.883 1.029 0.898 -1.927 -1.044 -0.898 -0.757 -0.84 -1.025 -0.917 -0.065 -0.772 0.34
-0.0935 -1.976 -1.883 1.035 0.8945 -1.929 -1.032 -0.8955 -0.7525 -0.8355 -1.027 -0.922 -0.071 -0.7635 0.336
-0.0805 -1.968 -1.887 1.024 0.904 -1.927 -1.038 -0.893 -0.75 -0.8315 -1.026 -0.923 -0.068 -0.77 0.3325
-0.0775 -1.959 -1.881 1.018 0.9025 -1.921 -1.044 -0.8925 -0.7545 -0.832 -1.024 -0.9215 -0.0625 -0.779 0.34
-0.087 -1.97 -1.883 1.028 0.898 -1.926 -1.044 -0.898 -0.765 -0.84 -1.025 -0.9195 -0.064 -0.765 0.3435
-0.0705 -1.961 -1.891 1.016 0.91 -1.925 -1.037 -0.892 -0.76 -0.8375 -1.017 -0.9115 -0.0555 -0.765 0.3345
-0.072 -1.959 -1.887 1.016 0.9075 -1.923 -1.042 -0.894 -0.766 -0.8455 -1.022 -0.9145 -0.056 -0.773 0.3465
-0.073 -1.959 -1.886 1.016 0.907 -1.923 -1.048 -0.9025 -0.776 -0.8575 -1.028 -0.9175 -0.0565 -0.771 0.3475
-0.0725 -1.956 -1.883 1.014 0.906 -1.919 -1.046 -0.8965 -0.77 -0.8515 -1.025 -0.914 -0.053 -0.766 0.3405
-0.0875 -1.964 -1.877 1.026 0.8945 -1.92 -1.047 -0.898 -0.7645 -0.8415 -1.029 -0.922 -0.0585 -0.7755 0.3415
-0.0935 -1.967 -1.873 1.03 0.8905 -1.92 -1.044 -0.9015 -0.761 -0.834 -1.03 -0.924 -0.057 -0.772 0.3345
-0.0835 -1.966 -1.881 1.024 0.8995 -1.923 -1.056 -0.902 -0.76 -0.831 -1.029 -0.9205 -0.048 -0.768 0.339
